Tested at The Flinders University of South Australia

Cell Name:,CP156V_3R
Notes:,
Cell Area (cm2):,0.100000
Temperature (C):,25.000000
Ideality [LnJ vs. V]: ,50.970
Jsat [Ln J vs. V] (A/m2): ,4.143E+0
Jsat [Ln J vs. V] (mA/cm2): ,4.143E-1
Schottky? : ,No
SBH [Ln J vs. V] (eV): ,0.000
R-Squared [Ln J vs. V]: ,1.000



Voltage (V), Current (A), Current Density (mA/cm2), Power Density (mW/cm2)
1.00000E+1,4.29687E-2,4.29687E+2,4.29687E+3
9.94950E+0,5.44787E-2,5.44786E+2,5.42035E+3
9.89900E+0,5.97143E-2,5.97143E+2,5.91112E+3
9.84850E+0,6.27651E-2,6.27651E+2,6.18142E+3
9.79800E+0,6.40249E-2,6.40249E+2,6.27316E+3
9.74750E+0,6.39343E-2,6.39343E+2,6.23200E+3
9.69700E+0,6.31638E-2,6.31638E+2,6.12499E+3
9.64650E+0,6.19125E-2,6.19125E+2,5.97239E+3
9.59600E+0,6.04448E-2,6.04448E+2,5.80029E+3
9.54550E+0,5.89275E-2,5.89275E+2,5.62493E+3
9.49500E+0,5.70669E-2,5.70669E+2,5.41850E+3
9.44450E+0,5.51815E-2,5.51815E+2,5.21162E+3
9.39400E+0,5.33428E-2,5.33428E+2,5.01102E+3
9.34350E+0,5.14612E-2,5.14612E+2,4.80828E+3
9.29300E+0,4.96902E-2,4.96902E+2,4.61771E+3
9.24250E+0,4.79202E-2,4.79202E+2,4.42903E+3
9.19200E+0,4.61893E-2,4.61893E+2,4.24572E+3
9.14150E+0,4.44565E-2,4.44565E+2,4.06399E+3
9.09100E+0,4.27656E-2,4.27656E+2,3.88782E+3
9.04050E+0,4.11482E-2,4.11482E+2,3.72000E+3
8.99000E+0,3.96252E-2,3.96252E+2,3.56230E+3
8.93950E+0,3.82461E-2,3.82461E+2,3.41901E+3
8.88900E+0,3.68366E-2,3.68366E+2,3.27441E+3
8.83850E+0,3.54719E-2,3.54719E+2,3.13519E+3
8.78800E+0,3.42607E-2,3.42607E+2,3.01083E+3
8.73750E+0,3.30582E-2,3.30582E+2,2.88846E+3
8.68700E+0,3.18899E-2,3.18899E+2,2.77028E+3
8.63650E+0,3.07827E-2,3.07827E+2,2.65855E+3
8.58600E+0,2.97575E-2,2.97575E+2,2.55498E+3
8.53550E+0,2.88000E-2,2.88000E+2,2.45822E+3
8.48500E+0,2.78635E-2,2.78635E+2,2.36422E+3
8.43450E+0,2.69566E-2,2.69566E+2,2.27365E+3
8.38400E+0,2.61126E-2,2.61126E+2,2.18928E+3
8.33350E+0,2.52676E-2,2.52676E+2,2.10568E+3
8.28300E+0,2.45953E-2,2.45953E+2,2.03723E+3
8.23250E+0,2.38752E-2,2.38752E+2,1.96553E+3
8.18200E+0,2.31857E-2,2.31857E+2,1.89706E+3
8.13150E+0,2.25420E-2,2.25420E+2,1.83300E+3
8.08100E+0,2.19088E-2,2.19088E+2,1.77045E+3
8.03050E+0,2.13375E-2,2.13375E+2,1.71351E+3
7.98000E+0,2.08149E-2,2.08149E+2,1.66103E+3
7.92950E+0,2.03228E-2,2.03228E+2,1.61150E+3
7.87900E+0,1.98383E-2,1.98383E+2,1.56306E+3
7.82850E+0,1.93873E-2,1.93873E+2,1.51773E+3
7.77800E+0,1.89591E-2,1.89590E+2,1.47463E+3
7.72750E+0,1.85184E-2,1.85184E+2,1.43101E+3
7.67700E+0,1.81284E-2,1.81284E+2,1.39172E+3
7.62650E+0,1.77641E-2,1.77641E+2,1.35478E+3
7.57600E+0,1.73817E-2,1.73817E+2,1.31684E+3
7.52550E+0,1.70260E-2,1.70260E+2,1.28129E+3
7.47500E+0,1.67017E-2,1.67017E+2,1.24845E+3
7.42450E+0,1.63727E-2,1.63727E+2,1.21559E+3
7.37400E+0,1.60360E-2,1.60360E+2,1.18250E+3
7.32300E+0,1.57309E-2,1.57309E+2,1.15197E+3
7.27250E+0,1.54428E-2,1.54428E+2,1.12308E+3
7.22200E+0,1.51663E-2,1.51663E+2,1.09531E+3
7.17150E+0,1.48745E-2,1.48745E+2,1.06672E+3
7.12100E+0,1.45845E-2,1.45845E+2,1.03857E+3
7.07050E+0,1.43194E-2,1.43194E+2,1.01245E+3
7.02000E+0,1.40696E-2,1.40696E+2,9.87683E+2
6.96950E+0,1.38121E-2,1.38121E+2,9.62632E+2
6.91900E+0,1.35794E-2,1.35794E+2,9.39557E+2
6.86850E+0,1.33285E-2,1.33286E+2,9.15471E+2
6.81800E+0,1.30644E-2,1.30644E+2,8.90729E+2
6.76750E+0,1.28145E-2,1.28145E+2,8.67223E+2
6.71700E+0,1.25809E-2,1.25809E+2,8.45057E+2
6.66650E+0,1.23558E-2,1.23558E+2,8.23699E+2
6.61600E+0,1.21221E-2,1.21221E+2,8.02001E+2
6.56550E+0,1.18961E-2,1.18961E+2,7.81040E+2
6.51500E+0,1.16692E-2,1.16692E+2,7.60246E+2
6.46450E+0,1.14355E-2,1.14355E+2,7.39249E+2
6.41400E+0,1.12171E-2,1.12171E+2,7.19466E+2
6.36350E+0,1.09940E-2,1.09940E+2,6.99601E+2
6.31300E+0,1.07641E-2,1.07641E+2,6.79539E+2
6.26250E+0,1.05524E-2,1.05524E+2,6.60845E+2
6.21200E+0,1.03474E-2,1.03474E+2,6.42779E+2
6.16150E+0,1.01395E-2,1.01395E+2,6.24743E+2
6.11100E+0,9.93156E-3,9.93156E+1,6.06918E+2
6.06050E+0,9.72748E-3,9.72748E+1,5.89534E+2
6.01000E+0,9.53007E-3,9.53007E+1,5.72757E+2
5.95950E+0,9.33266E-3,9.33266E+1,5.56180E+2
5.90900E+0,9.13048E-3,9.13048E+1,5.39520E+2
5.85850E+0,8.93688E-3,8.93688E+1,5.23567E+2
5.80800E+0,8.74519E-3,8.74519E+1,5.07921E+2
5.75750E+0,8.55923E-3,8.55923E+1,4.92797E+2
5.70700E+0,8.38184E-3,8.38184E+1,4.78352E+2
5.65650E+0,8.19015E-3,8.19015E+1,4.63276E+2
5.60600E+0,8.01086E-3,8.01086E+1,4.49089E+2
5.55550E+0,7.83062E-3,7.83062E+1,4.35030E+2
5.50500E+0,7.65228E-3,7.65228E+1,4.21258E+2
5.45450E+0,7.47871E-3,7.47871E+1,4.07926E+2
5.40400E+0,7.30514E-3,7.30514E+1,3.94770E+2
5.35350E+0,7.14111E-3,7.14111E+1,3.82299E+2
5.30300E+0,6.97708E-3,6.97708E+1,3.69995E+2
5.25250E+0,6.80733E-3,6.80733E+1,3.57555E+2
5.20200E+0,6.64234E-3,6.64234E+1,3.45535E+2
5.15150E+0,6.48022E-3,6.48022E+1,3.33828E+2
5.10100E+0,6.32095E-3,6.32095E+1,3.22432E+2
5.05050E+0,6.16837E-3,6.16837E+1,3.11533E+2
5.00000E+0,6.01196E-3,6.01196E+1,3.00598E+2
4.94950E+0,5.85651E-3,5.85651E+1,2.89868E+2
4.89900E+0,5.70774E-3,5.70774E+1,2.79622E+2
4.84850E+0,5.56087E-3,5.56088E+1,2.69619E+2
4.79800E+0,5.41305E-3,5.41305E+1,2.59718E+2
4.74750E+0,5.26905E-3,5.26905E+1,2.50148E+2
4.69700E+0,5.12600E-3,5.12600E+1,2.40768E+2
4.64650E+0,4.99344E-3,4.99344E+1,2.32020E+2
4.59600E+0,4.85992E-3,4.85992E+1,2.23362E+2
4.54550E+0,4.72164E-3,4.72164E+1,2.14622E+2
4.49500E+0,4.59194E-3,4.59194E+1,2.06408E+2
4.44450E+0,4.46415E-3,4.46415E+1,1.98409E+2
4.39400E+0,4.32873E-3,4.32873E+1,1.90204E+2
4.34350E+0,4.20284E-3,4.20284E+1,1.82550E+2
4.29300E+0,4.07600E-3,4.07600E+1,1.74983E+2
4.24250E+0,3.94821E-3,3.94821E+1,1.67503E+2
4.19200E+0,3.82996E-3,3.82996E+1,1.60552E+2
4.14150E+0,3.71265E-3,3.71265E+1,1.53760E+2
4.09100E+0,3.60107E-3,3.60107E+1,1.47320E+2
4.04050E+0,3.48568E-3,3.48568E+1,1.40839E+2
3.99000E+0,3.37410E-3,3.37410E+1,1.34627E+2
3.93950E+0,3.26443E-3,3.26443E+1,1.28602E+2
3.88900E+0,3.15762E-3,3.15762E+1,1.22800E+2
3.83850E+0,3.05653E-3,3.05653E+1,1.17325E+2
3.78800E+0,2.95258E-3,2.95258E+1,1.11844E+2
3.73750E+0,2.85149E-3,2.85149E+1,1.06574E+2
3.68700E+0,2.75612E-3,2.75612E+1,1.01618E+2
3.63650E+0,2.66170E-3,2.66170E+1,9.67929E+1
3.58600E+0,2.56920E-3,2.56920E+1,9.21315E+1
3.53550E+0,2.47860E-3,2.47860E+1,8.76309E+1
3.48500E+0,2.38228E-3,2.38228E+1,8.30224E+1
3.43450E+0,2.28882E-3,2.28882E+1,7.86095E+1
3.38400E+0,2.19822E-3,2.19822E+1,7.43877E+1
3.33350E+0,2.11334E-3,2.11334E+1,7.04483E+1
3.28300E+0,2.03419E-3,2.03419E+1,6.67824E+1
3.23250E+0,1.95026E-3,1.95026E+1,6.30423E+1
3.18200E+0,1.87302E-3,1.87302E+1,5.95994E+1
3.13150E+0,1.79577E-3,1.79577E+1,5.62345E+1
3.08100E+0,1.72234E-3,1.72234E+1,5.30652E+1
3.03050E+0,1.64795E-3,1.64795E+1,4.99411E+1
2.98000E+0,1.57833E-3,1.57833E+1,4.70343E+1
2.92950E+0,1.51253E-3,1.51253E+1,4.43095E+1
2.87900E+0,1.44863E-3,1.44863E+1,4.17061E+1
2.82850E+0,1.38664E-3,1.38664E+1,3.92212E+1
2.77800E+0,1.31893E-3,1.31893E+1,3.66399E+1
2.72750E+0,1.25694E-3,1.25694E+1,3.42831E+1
2.67700E+0,1.19686E-3,1.19686E+1,3.20400E+1
2.62650E+0,1.13869E-3,1.13869E+1,2.99076E+1
2.57600E+0,1.08147E-3,1.08147E+1,2.78586E+1
2.52550E+0,1.02997E-3,1.02997E+1,2.60118E+1
2.47450E+0,9.77516E-4,9.77516E+0,2.41886E+1
2.42400E+0,9.25064E-4,9.25064E+0,2.24236E+1
2.37350E+0,8.76427E-4,8.76427E+0,2.08020E+1
2.32300E+0,8.31604E-4,8.31604E+0,1.93182E+1
2.27250E+0,7.86781E-4,7.86781E+0,1.78796E+1
2.22200E+0,7.46727E-4,7.46727E+0,1.65923E+1
2.17150E+0,7.05719E-4,7.05719E+0,1.53247E+1
2.12100E+0,6.69479E-4,6.69479E+0,1.41997E+1
2.07050E+0,6.34193E-4,6.34193E+0,1.31310E+1
2.02000E+0,6.00815E-4,6.00815E+0,1.21365E+1
1.96950E+0,5.69344E-4,5.69344E+0,1.12132E+1
1.91900E+0,5.35965E-4,5.35965E+0,1.02852E+1
1.86850E+0,5.04494E-4,5.04494E+0,9.42646E+0
1.81800E+0,4.79698E-4,4.79698E+0,8.72091E+0
1.76750E+0,4.57764E-4,4.57764E+0,8.09097E+0
1.71700E+0,4.34875E-4,4.34875E+0,7.46681E+0
1.66650E+0,4.15802E-4,4.15802E+0,6.92934E+0
1.61600E+0,3.92914E-4,3.92914E+0,6.34949E+0
1.56550E+0,3.73840E-4,3.73840E+0,5.85247E+0
1.51500E+0,3.56674E-4,3.56674E+0,5.40361E+0
1.46450E+0,3.41415E-4,3.41415E+0,5.00003E+0
1.41400E+0,3.24249E-4,3.24249E+0,4.58489E+0
1.36350E+0,3.08037E-4,3.08037E+0,4.20008E+0
1.31300E+0,2.96593E-4,2.96593E+0,3.89426E+0
1.26250E+0,2.85149E-4,2.85149E+0,3.60000E+0
1.21200E+0,2.73705E-4,2.73705E+0,3.31730E+0
1.16150E+0,2.63214E-4,2.63214E+0,3.05723E+0
1.11100E+0,2.56538E-4,2.56538E+0,2.85014E+0
1.06050E+0,2.47955E-4,2.47955E+0,2.62957E+0
1.01000E+0,2.44141E-4,2.44141E+0,2.46582E+0
9.59500E-1,2.36511E-4,2.36511E+0,2.26932E+0
9.09000E-1,2.30789E-4,2.30789E+0,2.09787E+0
8.58500E-1,2.26974E-4,2.26974E+0,1.94858E+0
8.08000E-1,2.20299E-4,2.20299E+0,1.78001E+0
7.57500E-1,2.15530E-4,2.15530E+0,1.63264E+0
7.07000E-1,2.10762E-4,2.10762E+0,1.49009E+0
6.56500E-1,2.05040E-4,2.05040E+0,1.34609E+0
6.06000E-1,2.01225E-4,2.01225E+0,1.21943E+0
5.55500E-1,1.99318E-4,1.99318E+0,1.10721E+0
5.05000E-1,1.98364E-4,1.98364E+0,1.00174E+0
4.54500E-1,1.92642E-4,1.92642E+0,8.75559E-1
4.04000E-1,1.91689E-4,1.91688E+0,7.74422E-1
3.53500E-1,1.91689E-4,1.91688E+0,6.77619E-1
3.03000E-1,1.87874E-4,1.87874E+0,5.69258E-1
2.52500E-1,1.85013E-4,1.85013E+0,4.67157E-1
2.02000E-1,1.83106E-4,1.83106E+0,3.69873E-1
1.51500E-1,1.83106E-4,1.83106E+0,2.77405E-1
1.01000E-1,1.85013E-4,1.85013E+0,1.86863E-1
5.05000E-2,1.87874E-4,1.87874E+0,9.48763E-2
0.00000E+0,1.85967E-4,1.85966E+0,0.00000E+0
1.00000E+1,2.59066E-2,2.59066E+2,2.59066E+3
