Tested at The Flinders University of South Australia

Cell Name:,CP156R_3R
Notes:,
Cell Area (cm2):,0.100000
Temperature (C):,25.000000
Ideality [LnJ vs. V]: ,31.888
Jsat [Ln J vs. V] (A/m2): ,9.463E-2
Jsat [Ln J vs. V] (mA/cm2): ,9.463E-3
Schottky? : ,No
SBH [Ln J vs. V] (eV): ,0.000
R-Squared [Ln J vs. V]: ,1.000



Voltage (V), Current (A), Current Density (mA/cm2), Power Density (mW/cm2)
1.00000E+1,8.16670E-2,8.16669E+2,8.16670E+3
9.94950E+0,1.12234E-1,1.12234E+3,1.11667E+4
9.89900E+0,1.22412E-1,1.22412E+3,1.21175E+4
9.84850E+0,1.30670E-1,1.30670E+3,1.28691E+4
9.79800E+0,1.31339E-1,1.31339E+3,1.28686E+4
9.74750E+0,1.28863E-1,1.28863E+3,1.25610E+4
9.69700E+0,1.25664E-1,1.25664E+3,1.21856E+4
9.64650E+0,1.20336E-1,1.20337E+3,1.16083E+4
9.59600E+0,1.14349E-1,1.14349E+3,1.09730E+4
9.54550E+0,1.07942E-1,1.07942E+3,1.03036E+4
9.49500E+0,1.01620E-1,1.01620E+3,9.64879E+3
9.44450E+0,9.56173E-2,9.56173E+2,9.03057E+3
9.39400E+0,8.99849E-2,8.99849E+2,8.45318E+3
9.34350E+0,8.44641E-2,8.44641E+2,7.89190E+3
9.29300E+0,7.95250E-2,7.95250E+2,7.39026E+3
9.24250E+0,7.47967E-2,7.47967E+2,6.91308E+3
9.19200E+0,7.04660E-2,7.04660E+2,6.47724E+3
9.14150E+0,6.65207E-2,6.65207E+2,6.08099E+3
9.09100E+0,6.29683E-2,6.29683E+2,5.72444E+3
9.04050E+0,5.94502E-2,5.94501E+2,5.37459E+3
8.99000E+0,5.62744E-2,5.62744E+2,5.05907E+3
8.93950E+0,5.32522E-2,5.32522E+2,4.76048E+3
8.88900E+0,5.04436E-2,5.04436E+2,4.48394E+3
8.83850E+0,4.78792E-2,4.78792E+2,4.23180E+3
8.78800E+0,4.55179E-2,4.55179E+2,4.00011E+3
8.73750E+0,4.33598E-2,4.33598E+2,3.78856E+3
8.68700E+0,4.13217E-2,4.13217E+2,3.58962E+3
8.63650E+0,3.94678E-2,3.94678E+2,3.40864E+3
8.58600E+0,3.77665E-2,3.77665E+2,3.24263E+3
8.53550E+0,3.61471E-2,3.61471E+2,3.08534E+3
8.48500E+0,3.46670E-2,3.46670E+2,2.94150E+3
8.43450E+0,3.33214E-2,3.33214E+2,2.81049E+3
8.38400E+0,3.20005E-2,3.20005E+2,2.68293E+3
8.33350E+0,3.07932E-2,3.07932E+2,2.56615E+3
8.28300E+0,2.96669E-2,2.96669E+2,2.45731E+3
8.23250E+0,2.86551E-2,2.86550E+2,2.35903E+3
8.18200E+0,2.76489E-2,2.76489E+2,2.26224E+3
8.13150E+0,2.67811E-2,2.67811E+2,2.17770E+3
8.08100E+0,2.59666E-2,2.59666E+2,2.09836E+3
8.03050E+0,2.51818E-2,2.51818E+2,2.02222E+3
7.98000E+0,2.44560E-2,2.44560E+2,1.95159E+3
7.92950E+0,2.37884E-2,2.37884E+2,1.88631E+3
7.87900E+0,2.31342E-2,2.31342E+2,1.82275E+3
7.82850E+0,2.25296E-2,2.25296E+2,1.76373E+3
7.77800E+0,2.19469E-2,2.19469E+2,1.70703E+3
7.72750E+0,2.14548E-2,2.14548E+2,1.65792E+3
7.67700E+0,2.09408E-2,2.09408E+2,1.60762E+3
7.62650E+0,2.04802E-2,2.04802E+2,1.56192E+3
7.57600E+0,2.00615E-2,2.00615E+2,1.51986E+3
7.52550E+0,1.96362E-2,1.96362E+2,1.47772E+3
7.47500E+0,1.92442E-2,1.92442E+2,1.43850E+3
7.42450E+0,1.88732E-2,1.88732E+2,1.40124E+3
7.37400E+0,1.85289E-2,1.85289E+2,1.36632E+3
7.32300E+0,1.82056E-2,1.82056E+2,1.33320E+3
7.27250E+0,1.78728E-2,1.78728E+2,1.29980E+3
7.22200E+0,1.75743E-2,1.75743E+2,1.26922E+3
7.17150E+0,1.72901E-2,1.72901E+2,1.23996E+3
7.12100E+0,1.70374E-2,1.70374E+2,1.21323E+3
7.07050E+0,1.68123E-2,1.68123E+2,1.18872E+3
7.02000E+0,1.65834E-2,1.65834E+2,1.16416E+3
6.96950E+0,1.63555E-2,1.63555E+2,1.13990E+3
6.91900E+0,1.61371E-2,1.61371E+2,1.11653E+3
6.86850E+0,1.59426E-2,1.59426E+2,1.09502E+3
6.81800E+0,1.57452E-2,1.57452E+2,1.07351E+3
6.76750E+0,1.55659E-2,1.55659E+2,1.05342E+3
6.71700E+0,1.53723E-2,1.53723E+2,1.03256E+3
6.66650E+0,1.51844E-2,1.51844E+2,1.01227E+3
6.61600E+0,1.50061E-2,1.50061E+2,9.92802E+2
6.56550E+0,1.48487E-2,1.48487E+2,9.74892E+2
6.51500E+0,1.46818E-2,1.46818E+2,9.56521E+2
6.46450E+0,1.44987E-2,1.44987E+2,9.37269E+2
6.41400E+0,1.43318E-2,1.43318E+2,9.19243E+2
6.36350E+0,1.41678E-2,1.41678E+2,9.01567E+2
6.31300E+0,1.39942E-2,1.39942E+2,8.83455E+2
6.26250E+0,1.38311E-2,1.38311E+2,8.66175E+2
6.21200E+0,1.36633E-2,1.36633E+2,8.48764E+2
6.16150E+0,1.35040E-2,1.35040E+2,8.32051E+2
6.11100E+0,1.33448E-2,1.33448E+2,8.15498E+2
6.06050E+0,1.31731E-2,1.31731E+2,7.98356E+2
6.01000E+0,1.30167E-2,1.30167E+2,7.82304E+2
5.95950E+0,1.28479E-2,1.28479E+2,7.65671E+2
5.90900E+0,1.26858E-2,1.26858E+2,7.49603E+2
5.85850E+0,1.25179E-2,1.25179E+2,7.33363E+2
5.80800E+0,1.23558E-2,1.23558E+2,7.17625E+2
5.75750E+0,1.21965E-2,1.21965E+2,7.02216E+2
5.70700E+0,1.20439E-2,1.20439E+2,6.87348E+2
5.65650E+0,1.18876E-2,1.18875E+2,6.72419E+2
5.60600E+0,1.17187E-2,1.17187E+2,6.56953E+2
5.55550E+0,1.15538E-2,1.15538E+2,6.41869E+2
5.50500E+0,1.13888E-2,1.13888E+2,6.26952E+2
5.45450E+0,1.12219E-2,1.12219E+2,6.12098E+2
5.40400E+0,1.10569E-2,1.10569E+2,5.97515E+2
5.35350E+0,1.08957E-2,1.08957E+2,5.83303E+2
5.30300E+0,1.07298E-2,1.07298E+2,5.69001E+2
5.25250E+0,1.05677E-2,1.05677E+2,5.55067E+2
5.20200E+0,1.04075E-2,1.04075E+2,5.41396E+2
5.15150E+0,1.02367E-2,1.02367E+2,5.27346E+2
5.10100E+0,1.00765E-2,1.00765E+2,5.14003E+2
5.05050E+0,9.91154E-3,9.91154E+1,5.00582E+2
5.00000E+0,9.73701E-3,9.73701E+1,4.86851E+2
4.94950E+0,9.57012E-3,9.57012E+1,4.73673E+2
4.89900E+0,9.40609E-3,9.40609E+1,4.60804E+2
4.84850E+0,9.24206E-3,9.24206E+1,4.48101E+2
4.79800E+0,9.07421E-3,9.07421E+1,4.35381E+2
4.74750E+0,8.91209E-3,8.91209E+1,4.23101E+2
4.69700E+0,8.75092E-3,8.75092E+1,4.11031E+2
4.64650E+0,8.59070E-3,8.59070E+1,3.99167E+2
4.59600E+0,8.42285E-3,8.42285E+1,3.87114E+2
4.54550E+0,8.25405E-3,8.25405E+1,3.75188E+2
4.49500E+0,8.08907E-3,8.08907E+1,3.63604E+2
4.44450E+0,7.92599E-3,7.92599E+1,3.52270E+2
4.39400E+0,7.76100E-3,7.76100E+1,3.41018E+2
4.34350E+0,7.59125E-3,7.59125E+1,3.29726E+2
4.29300E+0,7.42626E-3,7.42626E+1,3.18809E+2
4.24250E+0,7.26128E-3,7.26128E+1,3.08060E+2
4.19200E+0,7.09438E-3,7.09438E+1,2.97397E+2
4.14150E+0,6.93226E-3,6.93226E+1,2.87100E+2
4.09100E+0,6.77300E-3,6.77300E+1,2.77083E+2
4.04050E+0,6.61564E-3,6.61564E+1,2.67305E+2
3.99000E+0,6.45065E-3,6.45065E+1,2.57381E+2
3.93950E+0,6.28471E-3,6.28471E+1,2.47586E+2
3.88900E+0,6.12259E-3,6.12259E+1,2.38107E+2
3.83850E+0,5.96237E-3,5.96237E+1,2.28866E+2
3.78800E+0,5.80692E-3,5.80692E+1,2.19966E+2
3.73750E+0,5.64575E-3,5.64575E+1,2.11010E+2
3.68700E+0,5.49126E-3,5.49126E+1,2.02463E+2
3.63650E+0,5.33581E-3,5.33581E+1,1.94037E+2
3.58600E+0,5.18417E-3,5.18417E+1,1.85904E+2
3.53550E+0,5.03731E-3,5.03731E+1,1.78094E+2
3.48500E+0,4.88472E-3,4.88472E+1,1.70232E+2
3.43450E+0,4.73404E-3,4.73404E+1,1.62591E+2
3.38400E+0,4.58813E-3,4.58813E+1,1.55262E+2
3.33350E+0,4.44222E-3,4.44222E+1,1.48081E+2
3.28300E+0,4.30107E-3,4.30107E+1,1.41204E+2
3.23250E+0,4.16279E-3,4.16279E+1,1.34562E+2
3.18200E+0,4.01974E-3,4.01974E+1,1.27908E+2
3.13150E+0,3.88050E-3,3.88050E+1,1.21518E+2
3.08100E+0,3.74126E-3,3.74126E+1,1.15268E+2
3.03050E+0,3.60393E-3,3.60393E+1,1.09217E+2
2.98000E+0,3.48377E-3,3.48377E+1,1.03816E+2
2.92950E+0,3.33881E-3,3.33881E+1,9.78106E+1
2.87900E+0,3.21198E-3,3.21198E+1,9.24728E+1
2.82850E+0,3.09849E-3,3.09849E+1,8.76407E+1
2.77800E+0,2.97832E-3,2.97832E+1,8.27379E+1
2.72750E+0,2.85435E-3,2.85435E+1,7.78523E+1
2.67700E+0,2.73800E-3,2.73800E+1,7.32962E+1
2.62650E+0,2.62165E-3,2.62165E+1,6.88577E+1
2.57600E+0,2.51102E-3,2.51102E+1,6.46840E+1
2.52550E+0,2.39754E-3,2.39754E+1,6.05498E+1
2.47450E+0,2.28310E-3,2.28310E+1,5.64952E+1
2.42400E+0,2.17342E-3,2.17342E+1,5.26838E+1
2.37350E+0,2.07615E-3,2.07615E+1,4.92774E+1
2.32300E+0,1.97792E-3,1.97792E+1,4.59471E+1
2.27250E+0,1.88160E-3,1.88160E+1,4.27593E+1
2.22200E+0,1.78814E-3,1.78814E+1,3.97324E+1
2.17150E+0,1.70040E-3,1.70040E+1,3.69242E+1
2.12100E+0,1.61266E-3,1.61266E+1,3.42046E+1
2.07050E+0,1.52969E-3,1.52969E+1,3.16723E+1
2.02000E+0,1.44577E-3,1.44577E+1,2.92046E+1
1.96950E+0,1.36757E-3,1.36757E+1,2.69343E+1
1.91900E+0,1.29318E-3,1.29318E+1,2.48162E+1
1.86850E+0,1.21975E-3,1.21975E+1,2.27910E+1
1.81800E+0,1.15013E-3,1.15013E+1,2.09094E+1
1.76750E+0,1.08528E-3,1.08528E+1,1.91823E+1
1.71700E+0,1.02043E-3,1.02043E+1,1.75208E+1
1.66650E+0,9.57489E-4,9.57489E+0,1.59566E+1
1.61600E+0,9.01222E-4,9.01222E+0,1.45638E+1
1.56550E+0,8.44955E-4,8.44955E+0,1.32278E+1
1.51500E+0,7.91550E-4,7.91550E+0,1.19920E+1
1.46450E+0,7.42912E-4,7.42912E+0,1.08800E+1
1.41400E+0,6.96182E-4,6.96182E+0,9.84402E+0
1.36350E+0,6.52313E-4,6.52313E+0,8.89429E+0
1.31300E+0,6.12259E-4,6.12259E+0,8.03896E+0
1.26250E+0,5.76019E-4,5.76019E+0,7.27224E+0
1.21200E+0,5.38826E-4,5.38826E+0,6.53057E+0
1.16150E+0,5.05447E-4,5.05447E+0,5.87077E+0
1.11100E+0,4.73976E-4,4.73976E+0,5.26587E+0
1.06050E+0,4.44412E-4,4.44412E+0,4.71299E+0
1.01000E+0,4.18663E-4,4.18663E+0,4.22850E+0
9.59500E-1,3.94821E-4,3.94821E+0,3.78831E+0
9.09000E-1,3.70026E-4,3.70026E+0,3.36353E+0
8.58500E-1,3.49045E-4,3.49045E+0,2.99655E+0
8.08000E-1,3.30925E-4,3.30925E+0,2.67387E+0
7.57500E-1,3.14712E-4,3.14712E+0,2.38395E+0
7.07000E-1,2.98500E-4,2.98500E+0,2.11040E+0
6.56500E-1,2.84195E-4,2.84195E+0,1.86574E+0
6.06000E-1,2.70844E-4,2.70843E+0,1.64131E+0
5.55500E-1,2.58446E-4,2.58446E+0,1.43567E+0
5.05000E-1,2.51770E-4,2.51770E+0,1.27144E+0
4.54500E-1,2.42233E-4,2.42233E+0,1.10095E+0
4.04000E-1,2.35558E-4,2.35558E+0,9.51653E-1
3.53500E-1,2.26021E-4,2.26021E+0,7.98984E-1
3.03000E-1,2.17438E-4,2.17438E+0,6.58836E-1
2.52500E-1,2.13623E-4,2.13623E+0,5.39398E-1
2.02000E-1,2.13623E-4,2.13623E+0,4.31518E-1
1.51500E-1,2.10762E-4,2.10762E+0,3.19304E-1
1.01000E-1,2.07901E-4,2.07901E+0,2.09980E-1
5.05000E-2,2.05994E-4,2.05994E+0,1.04027E-1
0.00000E+0,2.03133E-4,2.03133E+0,0.00000E+0
1.00000E+1,4.04768E-2,4.04768E+2,4.04768E+3
