Tested at The Flinders University of South Australia

Cell Name:,CP156U_2
Notes:,
Cell Area (cm2):,0.100000
Temperature (C):,25.000000
Ideality [LnJ vs. V]: ,130.940
Jsat [Ln J vs. V] (A/m2): ,1.215E+2
Jsat [Ln J vs. V] (mA/cm2): ,1.215E+1
Schottky? : ,No
SBH [Ln J vs. V] (eV): ,0.000
R-Squared [Ln J vs. V]: ,0.992



Voltage (V), Current (A), Current Density (mA/cm2), Power Density (mW/cm2)
1.00000E+1,1.13163E-2,1.13163E+2,1.13163E+3
9.94950E+0,1.17502E-2,1.17502E+2,1.16909E+3
9.89900E+0,1.26076E-2,1.26076E+2,1.24802E+3
9.84850E+0,1.34373E-2,1.34373E+2,1.32337E+3
9.79800E+0,1.42460E-2,1.42460E+2,1.39582E+3
9.74750E+0,1.49879E-2,1.49880E+2,1.46095E+3
9.69700E+0,1.56498E-2,1.56498E+2,1.51756E+3
9.64650E+0,1.62420E-2,1.62420E+2,1.56679E+3
9.59600E+0,1.67646E-2,1.67646E+2,1.60873E+3
9.54550E+0,1.72205E-2,1.72205E+2,1.64378E+3
9.49500E+0,1.75839E-2,1.75839E+2,1.66959E+3
9.44450E+0,1.78728E-2,1.78728E+2,1.68800E+3
9.39400E+0,1.80521E-2,1.80521E+2,1.69581E+3
9.34350E+0,1.81675E-2,1.81675E+2,1.69748E+3
9.29300E+0,1.82266E-2,1.82266E+2,1.69380E+3
9.24250E+0,1.82695E-2,1.82695E+2,1.68856E+3
9.19200E+0,1.82142E-2,1.82142E+2,1.67425E+3
9.14150E+0,1.80941E-2,1.80941E+2,1.65407E+3
9.09100E+0,1.79510E-2,1.79510E+2,1.63193E+3
9.04050E+0,1.77622E-2,1.77622E+2,1.60579E+3
8.99000E+0,1.75428E-2,1.75428E+2,1.57710E+3
8.93950E+0,1.73378E-2,1.73378E+2,1.54991E+3
8.88900E+0,1.70717E-2,1.70717E+2,1.51751E+3
8.83850E+0,1.67732E-2,1.67732E+2,1.48250E+3
8.78800E+0,1.64900E-2,1.64900E+2,1.44914E+3
8.73750E+0,1.61610E-2,1.61610E+2,1.41206E+3
8.68700E+0,1.58539E-2,1.58539E+2,1.37723E+3
8.63650E+0,1.54982E-2,1.54982E+2,1.33850E+3
8.58600E+0,1.51825E-2,1.51825E+2,1.30357E+3
8.53550E+0,1.48783E-2,1.48783E+2,1.26993E+3
8.48500E+0,1.45483E-2,1.45483E+2,1.23442E+3
8.43450E+0,1.41993E-2,1.41993E+2,1.19764E+3
8.38400E+0,1.38845E-2,1.38845E+2,1.16408E+3
8.33350E+0,1.35508E-2,1.35508E+2,1.12925E+3
8.28300E+0,1.31998E-2,1.31998E+2,1.09334E+3
8.23250E+0,1.28641E-2,1.28641E+2,1.05904E+3
8.18200E+0,1.25723E-2,1.25723E+2,1.02866E+3
8.13150E+0,1.22509E-2,1.22509E+2,9.96182E+2
8.08100E+0,1.19314E-2,1.19314E+2,9.64178E+2
8.03050E+0,1.16272E-2,1.16272E+2,9.33722E+2
7.98000E+0,1.13516E-2,1.13516E+2,9.05857E+2
7.92950E+0,1.10693E-2,1.10693E+2,8.77740E+2
7.87900E+0,1.07832E-2,1.07832E+2,8.49608E+2
7.82850E+0,1.04971E-2,1.04971E+2,8.21765E+2
7.77800E+0,1.02472E-2,1.02472E+2,7.97030E+2
7.72750E+0,1.00050E-2,1.00050E+2,7.73136E+2
7.67700E+0,9.73129E-3,9.73129E+1,7.47071E+2
7.62650E+0,9.44900E-3,9.44900E+1,7.20628E+2
7.57600E+0,9.18770E-3,9.18770E+1,6.96060E+2
7.52550E+0,8.96358E-3,8.96358E+1,6.74555E+2
7.47500E+0,8.75473E-3,8.75473E+1,6.54416E+2
7.42450E+0,8.50964E-3,8.50964E+1,6.31798E+2
7.37400E+0,8.26263E-3,8.26263E+1,6.09287E+2
7.32300E+0,8.01182E-3,8.01182E+1,5.86705E+2
7.27250E+0,7.80582E-3,7.80582E+1,5.67679E+2
7.22200E+0,7.62749E-3,7.62749E+1,5.50857E+2
7.17150E+0,7.41959E-3,7.41959E+1,5.32096E+2
7.12100E+0,7.21073E-3,7.21073E+1,5.13476E+2
7.07050E+0,7.02858E-3,7.02858E+1,4.96956E+2
7.02000E+0,6.81877E-3,6.81877E+1,4.78678E+2
6.96950E+0,6.64997E-3,6.64997E+1,4.63470E+2
6.91900E+0,6.50120E-3,6.50120E+1,4.49818E+2
6.86850E+0,6.30283E-3,6.30283E+1,4.32910E+2
6.81800E+0,6.14071E-3,6.14071E+1,4.18674E+2
6.76750E+0,5.95951E-3,5.95951E+1,4.03310E+2
6.71700E+0,5.80311E-3,5.80311E+1,3.89795E+2
6.66650E+0,5.64194E-3,5.64194E+1,3.76120E+2
6.61600E+0,5.50175E-3,5.50175E+1,3.63996E+2
6.56550E+0,5.33581E-3,5.33581E+1,3.50322E+2
6.51500E+0,5.18417E-3,5.18417E+1,3.37749E+2
6.46450E+0,5.04112E-3,5.04112E+1,3.25883E+2
6.41400E+0,4.90189E-3,4.90189E+1,3.14407E+2
6.36350E+0,4.79317E-3,4.79317E+1,3.05013E+2
6.31300E+0,4.67396E-3,4.67396E+1,2.95067E+2
6.26250E+0,4.56142E-3,4.56142E+1,2.85659E+2
6.21200E+0,4.44031E-3,4.44031E+1,2.75832E+2
6.16150E+0,4.32587E-3,4.32587E+1,2.66538E+2
6.11100E+0,4.21715E-3,4.21715E+1,2.57710E+2
6.06050E+0,4.08459E-3,4.08459E+1,2.47546E+2
6.01000E+0,3.96252E-3,3.96252E+1,2.38147E+2
5.95950E+0,3.87955E-3,3.87955E+1,2.31202E+2
5.90900E+0,3.78132E-3,3.78132E+1,2.23438E+2
5.85850E+0,3.69358E-3,3.69358E+1,2.16388E+2
5.80800E+0,3.58772E-3,3.58772E+1,2.08375E+2
5.75750E+0,3.48949E-3,3.48949E+1,2.00908E+2
5.70700E+0,3.38268E-3,3.38268E+1,1.93050E+2
5.65650E+0,3.29399E-3,3.29399E+1,1.86325E+2
5.60600E+0,3.20149E-3,3.20148E+1,1.79475E+2
5.55550E+0,3.12900E-3,3.12900E+1,1.73832E+2
5.50500E+0,3.02601E-3,3.02601E+1,1.66582E+2
5.45450E+0,2.93827E-3,2.93827E+1,1.60268E+2
5.40400E+0,2.87056E-3,2.87056E+1,1.55125E+2
5.35350E+0,2.78664E-3,2.78664E+1,1.49183E+2
5.30300E+0,2.70557E-3,2.70557E+1,1.43477E+2
5.25250E+0,2.63023E-3,2.63023E+1,1.38153E+2
5.20200E+0,2.56920E-3,2.56920E+1,1.33650E+2
5.15150E+0,2.48432E-3,2.48432E+1,1.27980E+2
5.10100E+0,2.40326E-3,2.40326E+1,1.22590E+2
5.05050E+0,2.31934E-3,2.31934E+1,1.17138E+2
5.00000E+0,2.26975E-3,2.26974E+1,1.13487E+2
4.94950E+0,2.22111E-3,2.22111E+1,1.09934E+2
4.89900E+0,2.15626E-3,2.15626E+1,1.05635E+2
4.84850E+0,2.10190E-3,2.10190E+1,1.01911E+2
4.79800E+0,2.04372E-3,2.04372E+1,9.80579E+1
4.74750E+0,1.99699E-3,1.99699E+1,9.48073E+1
4.69700E+0,1.93596E-3,1.93596E+1,9.09320E+1
4.64650E+0,1.87492E-3,1.87492E+1,8.71183E+1
4.59600E+0,1.81580E-3,1.81580E+1,8.34540E+1
4.54550E+0,1.78051E-3,1.78051E+1,8.09331E+1
4.49500E+0,1.74046E-3,1.74046E+1,7.82335E+1
4.44450E+0,1.71471E-3,1.71471E+1,7.62101E+1
4.39400E+0,1.67561E-3,1.67561E+1,7.36261E+1
4.34350E+0,1.63460E-3,1.63460E+1,7.09988E+1
4.29300E+0,1.57165E-3,1.57165E+1,6.74711E+1
4.24250E+0,1.52969E-3,1.52969E+1,6.48973E+1
4.19200E+0,1.47247E-3,1.47247E+1,6.17261E+1
4.14150E+0,1.43242E-3,1.43242E+1,5.93236E+1
4.09100E+0,1.39618E-3,1.39618E+1,5.71177E+1
4.04050E+0,1.36662E-3,1.36662E+1,5.52181E+1
3.99000E+0,1.33133E-3,1.33133E+1,5.31200E+1
3.93950E+0,1.28746E-3,1.28746E+1,5.07195E+1
3.88900E+0,1.25122E-3,1.25122E+1,4.86600E+1
3.83850E+0,1.20926E-3,1.20926E+1,4.64174E+1
3.78800E+0,1.16730E-3,1.16730E+1,4.42172E+1
3.73750E+0,1.13487E-3,1.13487E+1,4.24158E+1
3.68700E+0,1.09959E-3,1.09959E+1,4.05417E+1
3.63650E+0,1.07002E-3,1.07002E+1,3.89114E+1
3.58600E+0,1.03092E-3,1.03092E+1,3.69689E+1
3.53550E+0,9.88960E-4,9.88960E+0,3.49647E+1
3.48500E+0,9.61304E-4,9.61304E+0,3.35014E+1
3.43450E+0,9.26018E-4,9.26018E+0,3.18041E+1
3.38400E+0,8.96454E-4,8.96454E+0,3.03360E+1
3.33350E+0,8.61168E-4,8.61168E+0,2.87070E+1
3.28300E+0,8.31604E-4,8.31604E+0,2.73016E+1
3.23250E+0,8.03947E-4,8.03947E+0,2.59876E+1
3.18200E+0,7.85828E-4,7.85828E+0,2.50050E+1
3.13150E+0,7.61986E-4,7.61986E+0,2.38616E+1
3.08100E+0,7.44820E-4,7.44820E+0,2.29479E+1
3.03050E+0,7.13348E-4,7.13348E+0,2.16180E+1
2.98000E+0,6.93321E-4,6.93321E+0,2.06610E+1
2.92950E+0,6.70433E-4,6.70433E+0,1.96403E+1
2.87900E+0,6.54221E-4,6.54221E+0,1.88350E+1
2.82850E+0,6.31332E-4,6.31332E+0,1.78572E+1
2.77800E+0,6.17981E-4,6.17981E+0,1.71675E+1
2.72750E+0,5.91278E-4,5.91278E+0,1.61271E+1
2.67700E+0,5.79834E-4,5.79834E+0,1.55222E+1
2.62650E+0,5.70297E-4,5.70297E+0,1.49789E+1
2.57600E+0,5.53131E-4,5.53131E+0,1.42487E+1
2.52550E+0,5.35011E-4,5.35011E+0,1.35117E+1
2.47450E+0,5.21660E-4,5.21660E+0,1.29085E+1
2.42400E+0,5.04494E-4,5.04494E+0,1.22289E+1
2.37350E+0,4.89235E-4,4.89235E+0,1.16120E+1
2.32300E+0,4.73022E-4,4.73022E+0,1.09883E+1
2.27250E+0,4.59671E-4,4.59671E+0,1.04460E+1
2.22200E+0,4.52042E-4,4.52042E+0,1.00444E+1
2.17150E+0,4.35829E-4,4.35829E+0,9.46403E+0
2.12100E+0,4.24385E-4,4.24385E+0,9.00121E+0
2.07050E+0,4.11034E-4,4.11034E+0,8.51045E+0
2.02000E+0,3.96729E-4,3.96728E+0,8.01392E+0
1.96950E+0,3.81470E-4,3.81470E+0,7.51305E+0
1.91900E+0,3.70979E-4,3.70979E+0,7.11909E+0
1.86850E+0,3.59535E-4,3.59535E+0,6.71792E+0
1.81800E+0,3.46184E-4,3.46184E+0,6.29362E+0
1.76750E+0,3.36647E-4,3.36647E+0,5.95024E+0
1.71700E+0,3.27110E-4,3.27110E+0,5.61648E+0
1.66650E+0,3.16620E-4,3.16620E+0,5.27647E+0
1.61600E+0,3.06129E-4,3.06129E+0,4.94705E+0
1.56550E+0,3.00407E-4,3.00407E+0,4.70288E+0
1.51500E+0,2.88010E-4,2.88010E+0,4.36335E+0
1.46450E+0,2.81334E-4,2.81334E+0,4.12013E+0
1.41400E+0,2.73705E-4,2.73705E+0,3.87018E+0
1.36350E+0,2.71797E-4,2.71797E+0,3.70595E+0
1.31300E+0,2.64168E-4,2.64168E+0,3.46852E+0
1.26250E+0,2.57492E-4,2.57492E+0,3.25084E+0
1.21200E+0,2.50816E-4,2.50816E+0,3.03989E+0
1.16150E+0,2.46048E-4,2.46048E+0,2.85785E+0
1.11100E+0,2.39372E-4,2.39372E+0,2.65943E+0
1.06050E+0,2.35558E-4,2.35558E+0,2.49809E+0
1.01000E+0,2.29835E-4,2.29835E+0,2.32134E+0
9.59500E-1,2.26021E-4,2.26021E+0,2.16867E+0
9.09000E-1,2.19345E-4,2.19345E+0,1.99385E+0
8.58500E-1,2.15530E-4,2.15530E+0,1.85033E+0
8.08000E-1,2.12669E-4,2.12669E+0,1.71837E+0
7.57500E-1,2.11716E-4,2.11716E+0,1.60375E+0
7.07000E-1,2.06947E-4,2.06947E+0,1.46312E+0
6.56500E-1,2.05994E-4,2.05994E+0,1.35235E+0
6.06000E-1,2.02179E-4,2.02179E+0,1.22520E+0
5.55500E-1,1.99318E-4,1.99318E+0,1.10721E+0
5.05000E-1,1.96457E-4,1.96457E+0,9.92107E-1
4.54500E-1,1.96457E-4,1.96457E+0,8.92897E-1
4.04000E-1,1.97411E-4,1.97411E+0,7.97539E-1
3.53500E-1,1.95503E-4,1.95503E+0,6.91104E-1
3.03000E-1,1.95503E-4,1.95503E+0,5.92375E-1
2.52500E-1,1.93596E-4,1.93596E+0,4.88830E-1
2.02000E-1,1.89781E-4,1.89781E+0,3.83358E-1
1.51500E-1,1.89781E-4,1.89781E+0,2.87519E-1
1.01000E-1,1.88828E-4,1.88827E+0,1.90716E-1
5.05000E-2,1.89781E-4,1.89781E+0,9.58395E-2
0.00000E+0,1.90735E-4,1.90735E+0,0.00000E+0
1.00000E+1,2.06184E-2,2.06184E+2,2.06184E+3
