Tested at The Flinders University of South Australia

Cell Name:,CP156Q_4R
Notes:,
Cell Area (cm2):,0.100000
Temperature (C):,25.000000
Ideality [LnJ vs. V]: ,52.585
Jsat [Ln J vs. V] (A/m2): ,4.546E+0
Jsat [Ln J vs. V] (mA/cm2): ,4.546E-1
Schottky? : ,No
SBH [Ln J vs. V] (eV): ,0.000
R-Squared [Ln J vs. V]: ,1.000



Voltage (V), Current (A), Current Density (mA/cm2), Power Density (mW/cm2)
1.00000E+1,4.35343E-2,4.35343E+2,4.35343E+3
9.94950E+0,5.46274E-2,5.46274E+2,5.43516E+3
9.89900E+0,5.74665E-2,5.74665E+2,5.68861E+3
9.84850E+0,5.82228E-2,5.82228E+2,5.73407E+3
9.79800E+0,5.80149E-2,5.80149E+2,5.68430E+3
9.74750E+0,5.71642E-2,5.71642E+2,5.57208E+3
9.69700E+0,5.61066E-2,5.61066E+2,5.44065E+3
9.64650E+0,5.48830E-2,5.48830E+2,5.29429E+3
9.59600E+0,5.35173E-2,5.35173E+2,5.13552E+3
9.54550E+0,5.20048E-2,5.20048E+2,4.96412E+3
9.49500E+0,5.04522E-2,5.04522E+2,4.79044E+3
9.44450E+0,4.88167E-2,4.88167E+2,4.61049E+3
9.39400E+0,4.71726E-2,4.71725E+2,4.43139E+3
9.34350E+0,4.54931E-2,4.54931E+2,4.25065E+3
9.29300E+0,4.39262E-2,4.39262E+2,4.08207E+3
9.24250E+0,4.24128E-2,4.24128E+2,3.92000E+3
9.19200E+0,4.08583E-2,4.08583E+2,3.75569E+3
9.14150E+0,3.93515E-2,3.93515E+2,3.59731E+3
9.09100E+0,3.79181E-2,3.79181E+2,3.44713E+3
9.04050E+0,3.65543E-2,3.65543E+2,3.30470E+3
8.99000E+0,3.52240E-2,3.52240E+2,3.16663E+3
8.93950E+0,3.39556E-2,3.39556E+2,3.03546E+3
8.88900E+0,3.28340E-2,3.28340E+2,2.91862E+3
8.83850E+0,3.16973E-2,3.16973E+2,2.80156E+3
8.78800E+0,3.06339E-2,3.06339E+2,2.69211E+3
8.73750E+0,2.96335E-2,2.96335E+2,2.58923E+3
8.68700E+0,2.86684E-2,2.86684E+2,2.49042E+3
8.63650E+0,2.78082E-2,2.78082E+2,2.40165E+3
8.58600E+0,2.69346E-2,2.69346E+2,2.31261E+3
8.53550E+0,2.60982E-2,2.60983E+2,2.22762E+3
8.48500E+0,2.53201E-2,2.53201E+2,2.14841E+3
8.43450E+0,2.45819E-2,2.45819E+2,2.07336E+3
8.38400E+0,2.38981E-2,2.38981E+2,2.00362E+3
8.33350E+0,2.32906E-2,2.32906E+2,1.94092E+3
8.28300E+0,2.26488E-2,2.26488E+2,1.87600E+3
8.23250E+0,2.21071E-2,2.21071E+2,1.81997E+3
8.18200E+0,2.15778E-2,2.15778E+2,1.76550E+3
8.13150E+0,2.10533E-2,2.10533E+2,1.71195E+3
8.08100E+0,2.05755E-2,2.05755E+2,1.66271E+3
8.03050E+0,2.00930E-2,2.00930E+2,1.61357E+3
7.98000E+0,1.96619E-2,1.96619E+2,1.56902E+3
7.92950E+0,1.92327E-2,1.92327E+2,1.52506E+3
7.87900E+0,1.88303E-2,1.88303E+2,1.48364E+3
7.82850E+0,1.84479E-2,1.84479E+2,1.44419E+3
7.77800E+0,1.80702E-2,1.80702E+2,1.40550E+3
7.72750E+0,1.77136E-2,1.77136E+2,1.36881E+3
7.67700E+0,1.73645E-2,1.73645E+2,1.33307E+3
7.62650E+0,1.70326E-2,1.70326E+2,1.29899E+3
7.57600E+0,1.67275E-2,1.67274E+2,1.26727E+3
7.52550E+0,1.64509E-2,1.64509E+2,1.23801E+3
7.47500E+0,1.61533E-2,1.61533E+2,1.20746E+3
7.42450E+0,1.58777E-2,1.58777E+2,1.17884E+3
7.37400E+0,1.55735E-2,1.55735E+2,1.14839E+3
7.32300E+0,1.53227E-2,1.53227E+2,1.12208E+3
7.27250E+0,1.50671E-2,1.50671E+2,1.09575E+3
7.22200E+0,1.48125E-2,1.48125E+2,1.06976E+3
7.17150E+0,1.45893E-2,1.45893E+2,1.04627E+3
7.12100E+0,1.43518E-2,1.43518E+2,1.02199E+3
7.07050E+0,1.41258E-2,1.41258E+2,9.98766E+2
7.02000E+0,1.38931E-2,1.38931E+2,9.75298E+2
6.96950E+0,1.36747E-2,1.36747E+2,9.53061E+2
6.91900E+0,1.34516E-2,1.34516E+2,9.30715E+2
6.86850E+0,1.32275E-2,1.32275E+2,9.08528E+2
6.81800E+0,1.30100E-2,1.30100E+2,8.87024E+2
6.76750E+0,1.28079E-2,1.28079E+2,8.66771E+2
6.71700E+0,1.26066E-2,1.26066E+2,8.46787E+2
6.66650E+0,1.24121E-2,1.24121E+2,8.27451E+2
6.61600E+0,1.22213E-2,1.22213E+2,8.08564E+2
6.56550E+0,1.20325E-2,1.20325E+2,7.89994E+2
6.51500E+0,1.18437E-2,1.18437E+2,7.71616E+2
6.46450E+0,1.16510E-2,1.16510E+2,7.53181E+2
6.41400E+0,1.14622E-2,1.14622E+2,7.35186E+2
6.36350E+0,1.12791E-2,1.12791E+2,7.17746E+2
6.31300E+0,1.11055E-2,1.11055E+2,7.01093E+2
6.26250E+0,1.09110E-2,1.09110E+2,6.83301E+2
6.21200E+0,1.07250E-2,1.07250E+2,6.66238E+2
6.16150E+0,1.05495E-2,1.05495E+2,6.50011E+2
6.11100E+0,1.03779E-2,1.03779E+2,6.34192E+2
6.06050E+0,1.02005E-2,1.02005E+2,6.18201E+2
6.01000E+0,1.00288E-2,1.00288E+2,6.02733E+2
5.95950E+0,9.85527E-3,9.85527E+1,5.87325E+2
5.90900E+0,9.68456E-3,9.68456E+1,5.72261E+2
5.85850E+0,9.51576E-3,9.51576E+1,5.57481E+2
5.80800E+0,9.33742E-3,9.33742E+1,5.42318E+2
5.75750E+0,9.17053E-3,9.17053E+1,5.27993E+2
5.70700E+0,9.00269E-3,9.00269E+1,5.13783E+2
5.65650E+0,8.83675E-3,8.83675E+1,4.99851E+2
5.60600E+0,8.67176E-3,8.67176E+1,4.86139E+2
5.55550E+0,8.51345E-3,8.51345E+1,4.72965E+2
5.50500E+0,8.35991E-3,8.35991E+1,4.60213E+2
5.45450E+0,8.20351E-3,8.20351E+1,4.47460E+2
5.40400E+0,8.04806E-3,8.04806E+1,4.34917E+2
5.35350E+0,7.90214E-3,7.90214E+1,4.23041E+2
5.30300E+0,7.75242E-3,7.75242E+1,4.11111E+2
5.25250E+0,7.59792E-3,7.59792E+1,3.99081E+2
5.20200E+0,7.45106E-3,7.45106E+1,3.87604E+2
5.15150E+0,7.30610E-3,7.30610E+1,3.76374E+2
5.10100E+0,7.16019E-3,7.16019E+1,3.65241E+2
5.05050E+0,7.01332E-3,7.01332E+1,3.54208E+2
5.00000E+0,6.86645E-3,6.86645E+1,3.43323E+2
4.94950E+0,6.72436E-3,6.72436E+1,3.32822E+2
4.89900E+0,6.58608E-3,6.58607E+1,3.22652E+2
4.84850E+0,6.44302E-3,6.44302E+1,3.12390E+2
4.79800E+0,6.29997E-3,6.29997E+1,3.02273E+2
4.74750E+0,6.16646E-3,6.16646E+1,2.92753E+2
4.69700E+0,6.02722E-3,6.02722E+1,2.83099E+2
4.64650E+0,5.88799E-3,5.88798E+1,2.73585E+2
4.59600E+0,5.75256E-3,5.75256E+1,2.64388E+2
4.54550E+0,5.61905E-3,5.61905E+1,2.55414E+2
4.49500E+0,5.48935E-3,5.48935E+1,2.46746E+2
4.44450E+0,5.35774E-3,5.35774E+1,2.38125E+2
4.39400E+0,5.22804E-3,5.22804E+1,2.29720E+2
4.34350E+0,5.09358E-3,5.09357E+1,2.21239E+2
4.29300E+0,4.96864E-3,4.96864E+1,2.13304E+2
4.24250E+0,4.83704E-3,4.83704E+1,2.05211E+2
4.19200E+0,4.71306E-3,4.71306E+1,1.97571E+2
4.14150E+0,4.58336E-3,4.58336E+1,1.89820E+2
4.09100E+0,4.46034E-3,4.46033E+1,1.82472E+2
4.04050E+0,4.33731E-3,4.33731E+1,1.75249E+2
3.99000E+0,4.21333E-3,4.21333E+1,1.68112E+2
3.93950E+0,4.09317E-3,4.09317E+1,1.61250E+2
3.88900E+0,3.97110E-3,3.97110E+1,1.54436E+2
3.83850E+0,3.85571E-3,3.85570E+1,1.48001E+2
3.78800E+0,3.74222E-3,3.74222E+1,1.41755E+2
3.73750E+0,3.63350E-3,3.63350E+1,1.35802E+2
3.68700E+0,3.52001E-3,3.52001E+1,1.29783E+2
3.63650E+0,3.40653E-3,3.40652E+1,1.23878E+2
3.58600E+0,3.30162E-3,3.30162E+1,1.18396E+2
3.53550E+0,3.19099E-3,3.19099E+1,1.12818E+2
3.48500E+0,3.08800E-3,3.08800E+1,1.07617E+2
3.43450E+0,2.98023E-3,2.98023E+1,1.02356E+2
3.38400E+0,2.88010E-3,2.88010E+1,9.74624E+1
3.33350E+0,2.77996E-3,2.77996E+1,9.26700E+1
3.28300E+0,2.67982E-3,2.67982E+1,8.79787E+1
3.23250E+0,2.58064E-3,2.58064E+1,8.34193E+1
3.18200E+0,2.48718E-3,2.48718E+1,7.91422E+1
3.13150E+0,2.38609E-3,2.38609E+1,7.47205E+1
3.08100E+0,2.28977E-3,2.28977E+1,7.05479E+1
3.03050E+0,2.19250E-3,2.19250E+1,6.64436E+1
2.98000E+0,2.10190E-3,2.10190E+1,6.26366E+1
2.92950E+0,2.01702E-3,2.01702E+1,5.90886E+1
2.87900E+0,1.93691E-3,1.93691E+1,5.57637E+1
2.82850E+0,1.84822E-3,1.84822E+1,5.22769E+1
2.77800E+0,1.77097E-3,1.77097E+1,4.91976E+1
2.72750E+0,1.68896E-3,1.68896E+1,4.60663E+1
2.67700E+0,1.61171E-3,1.61171E+1,4.31455E+1
2.62650E+0,1.53446E-3,1.53446E+1,4.03026E+1
2.57600E+0,1.46484E-3,1.46484E+1,3.77344E+1
2.52550E+0,1.39141E-3,1.39141E+1,3.51401E+1
2.47450E+0,1.31893E-3,1.31893E+1,3.26370E+1
2.42400E+0,1.25122E-3,1.25122E+1,3.03296E+1
2.37350E+0,1.18542E-3,1.18542E+1,2.81359E+1
2.32300E+0,1.12247E-3,1.12247E+1,2.60751E+1
2.27250E+0,1.06049E-3,1.06049E+1,2.40995E+1
2.22200E+0,1.00422E-3,1.00422E+1,2.23137E+1
2.17150E+0,9.46999E-4,9.46999E+0,2.05641E+1
2.12100E+0,8.94547E-4,8.94547E+0,1.89733E+1
2.07050E+0,8.43048E-4,8.43048E+0,1.74553E+1
2.02000E+0,7.96318E-4,7.96318E+0,1.60856E+1
1.96950E+0,7.48634E-4,7.48634E+0,1.47444E+1
1.91900E+0,7.05719E-4,7.05719E+0,1.35427E+1
1.86850E+0,6.64711E-4,6.64711E+0,1.24201E+1
1.81800E+0,6.25610E-4,6.25610E+0,1.13736E+1
1.76750E+0,5.88417E-4,5.88417E+0,1.04003E+1
1.71700E+0,5.55992E-4,5.55992E+0,9.54638E+0
1.66650E+0,5.21660E-4,5.21660E+0,8.69346E+0
1.61600E+0,4.92096E-4,4.92096E+0,7.95227E+0
1.56550E+0,4.65393E-4,4.65393E+0,7.28573E+0
1.51500E+0,4.37736E-4,4.37736E+0,6.63171E+0
1.46450E+0,4.11987E-4,4.11987E+0,6.03355E+0
1.41400E+0,3.89099E-4,3.89099E+0,5.50186E+0
1.36350E+0,3.70979E-4,3.70979E+0,5.05830E+0
1.31300E+0,3.52860E-4,3.52860E+0,4.63305E+0
1.26250E+0,3.36647E-4,3.36647E+0,4.25017E+0
1.21200E+0,3.23296E-4,3.23296E+0,3.91834E+0
1.16150E+0,3.08037E-4,3.08037E+0,3.57785E+0
1.11100E+0,2.93732E-4,2.93732E+0,3.26336E+0
1.06050E+0,2.81334E-4,2.81334E+0,2.98355E+0
1.01000E+0,2.70844E-4,2.70843E+0,2.73552E+0
9.59500E-1,2.61307E-4,2.61307E+0,2.50724E+0
9.09000E-1,2.48909E-4,2.48909E+0,2.26258E+0
8.58500E-1,2.41280E-4,2.41280E+0,2.07139E+0
8.08000E-1,2.35558E-4,2.35558E+0,1.90331E+0
7.57500E-1,2.28882E-4,2.28882E+0,1.73378E+0
7.07000E-1,2.25067E-4,2.25067E+0,1.59122E+0
6.56500E-1,2.18391E-4,2.18391E+0,1.43374E+0
6.06000E-1,2.13623E-4,2.13623E+0,1.29456E+0
5.55500E-1,2.12669E-4,2.12669E+0,1.18138E+0
5.05000E-1,2.10762E-4,2.10762E+0,1.06435E+0
4.54500E-1,2.09808E-4,2.09808E+0,9.53579E-1
4.04000E-1,2.06947E-4,2.06947E+0,8.36067E-1
3.53500E-1,2.05994E-4,2.05994E+0,7.28188E-1
3.03000E-1,2.02179E-4,2.02179E+0,6.12602E-1
2.52500E-1,2.00272E-4,2.00272E+0,5.05686E-1
2.02000E-1,2.00272E-4,2.00272E+0,4.04549E-1
1.51500E-1,2.02179E-4,2.02179E+0,3.06301E-1
1.01000E-1,2.04086E-4,2.04086E+0,2.06127E-1
5.05000E-2,2.05994E-4,2.05994E+0,1.04027E-1
0.00000E+0,2.05994E-4,2.05994E+0,0.00000E+0
1.00000E+1,2.44532E-2,2.44532E+2,2.44532E+3
