Tested at The Flinders University of South Australia

Cell Name:,CP156R_2
Notes:,
Cell Area (cm2):,0.100000
Temperature (C):,25.000000
Ideality [LnJ vs. V]: ,282.115
Jsat [Ln J vs. V] (A/m2): ,2.184E+2
Jsat [Ln J vs. V] (mA/cm2): ,2.184E+1
Schottky? : ,No
SBH [Ln J vs. V] (eV): ,0.000
R-Squared [Ln J vs. V]: ,0.984



Voltage (V), Current (A), Current Density (mA/cm2), Power Density (mW/cm2)
1.00000E+1,6.23894E-3,6.23894E+1,6.23894E+2
9.94950E+0,6.56891E-3,6.56891E+1,6.53574E+2
9.89900E+0,6.84547E-3,6.84547E+1,6.77633E+2
9.84850E+0,7.04193E-3,7.04193E+1,6.93525E+2
9.79800E+0,7.20215E-3,7.20215E+1,7.05666E+2
9.74750E+0,7.31945E-3,7.31945E+1,7.13463E+2
9.69700E+0,7.42245E-3,7.42245E+1,7.19755E+2
9.64650E+0,7.53593E-3,7.53593E+1,7.26954E+2
9.59600E+0,7.57790E-3,7.57790E+1,7.27175E+2
9.54550E+0,7.61986E-3,7.61986E+1,7.27354E+2
9.49500E+0,7.65324E-3,7.65324E+1,7.26675E+2
9.44450E+0,7.69901E-3,7.69901E+1,7.27133E+2
9.39400E+0,7.70473E-3,7.70473E+1,7.23783E+2
9.34350E+0,7.69711E-3,7.69711E+1,7.19179E+2
9.29300E+0,7.68471E-3,7.68471E+1,7.14140E+2
9.24250E+0,7.70760E-3,7.70760E+1,7.12375E+2
9.19200E+0,7.68566E-3,7.68566E+1,7.06466E+2
9.14150E+0,7.66468E-3,7.66468E+1,7.00667E+2
9.09100E+0,7.65514E-3,7.65514E+1,6.95929E+2
9.04050E+0,7.59029E-3,7.59029E+1,6.86201E+2
8.99000E+0,7.55787E-3,7.55787E+1,6.79452E+2
8.93950E+0,7.49016E-3,7.49016E+1,6.69583E+2
8.88900E+0,7.47395E-3,7.47395E+1,6.64359E+2
8.83850E+0,7.42912E-3,7.42912E+1,6.56623E+2
8.78800E+0,7.36713E-3,7.36713E+1,6.47424E+2
8.73750E+0,7.33852E-3,7.33852E+1,6.41204E+2
8.68700E+0,7.28607E-3,7.28607E+1,6.32941E+2
8.63650E+0,7.23648E-3,7.23648E+1,6.24979E+2
8.58600E+0,7.21168E-3,7.21168E+1,6.19195E+2
8.53550E+0,7.13062E-3,7.13062E+1,6.08634E+2
8.48500E+0,7.10773E-3,7.10773E+1,6.03091E+2
8.43450E+0,7.06101E-3,7.06100E+1,5.95560E+2
8.38400E+0,6.99139E-3,6.99139E+1,5.86158E+2
8.33350E+0,6.97422E-3,6.97422E+1,5.81197E+2
8.28300E+0,6.92844E-3,6.92844E+1,5.73883E+2
8.23250E+0,6.84833E-3,6.84834E+1,5.63789E+2
8.18200E+0,6.82163E-3,6.82163E+1,5.58146E+2
8.13150E+0,6.77967E-3,6.77967E+1,5.51289E+2
8.08100E+0,6.75774E-3,6.75774E+1,5.46093E+2
8.03050E+0,6.75297E-3,6.75297E+1,5.42297E+2
7.98000E+0,6.70242E-3,6.70242E+1,5.34853E+2
7.92950E+0,6.69479E-3,6.69479E+1,5.30864E+2
7.87900E+0,6.68812E-3,6.68812E+1,5.26957E+2
7.82850E+0,6.70147E-3,6.70147E+1,5.24625E+2
7.77800E+0,6.65283E-3,6.65283E+1,5.17457E+2
7.72750E+0,6.64139E-3,6.64139E+1,5.13213E+2
7.67700E+0,6.60133E-3,6.60133E+1,5.06784E+2
7.62650E+0,6.62327E-3,6.62327E+1,5.05124E+2
7.57600E+0,6.68240E-3,6.68240E+1,5.06258E+2
7.52550E+0,6.69289E-3,6.69289E+1,5.03673E+2
7.47500E+0,6.71101E-3,6.71101E+1,5.01648E+2
7.42450E+0,6.71482E-3,6.71482E+1,4.98542E+2
7.37400E+0,6.72531E-3,6.72531E+1,4.95924E+2
7.32300E+0,6.70910E-3,6.70910E+1,4.91307E+2
7.27250E+0,6.73103E-3,6.73103E+1,4.89514E+2
7.22200E+0,6.77872E-3,6.77872E+1,4.89559E+2
7.17150E+0,6.75011E-3,6.75011E+1,4.84084E+2
7.12100E+0,6.78062E-3,6.78062E+1,4.82848E+2
7.07050E+0,6.78253E-3,6.78253E+1,4.79559E+2
7.02000E+0,6.75011E-3,6.75011E+1,4.73858E+2
6.96950E+0,6.74820E-3,6.74820E+1,4.70316E+2
6.91900E+0,6.77872E-3,6.77872E+1,4.69019E+2
6.86850E+0,6.81591E-3,6.81591E+1,4.68151E+2
6.81800E+0,6.86359E-3,6.86359E+1,4.67960E+2
6.76750E+0,6.83117E-3,6.83117E+1,4.62299E+2
6.71700E+0,6.87313E-3,6.87313E+1,4.61668E+2
6.66650E+0,6.85406E-3,6.85406E+1,4.56926E+2
6.61600E+0,6.83594E-3,6.83594E+1,4.52266E+2
6.56550E+0,6.83880E-3,6.83880E+1,4.49001E+2
6.51500E+0,6.80828E-3,6.80828E+1,4.43560E+2
6.46450E+0,6.85215E-3,6.85215E+1,4.42957E+2
6.41400E+0,6.89030E-3,6.89030E+1,4.41944E+2
6.36350E+0,6.87027E-3,6.87027E+1,4.37190E+2
6.31300E+0,6.85406E-3,6.85406E+1,4.32697E+2
6.26250E+0,6.80351E-3,6.80351E+1,4.26070E+2
6.21200E+0,6.76632E-3,6.76632E+1,4.20324E+2
6.16150E+0,6.71196E-3,6.71196E+1,4.13557E+2
6.11100E+0,6.68812E-3,6.68812E+1,4.08711E+2
6.06050E+0,6.65283E-3,6.65283E+1,4.03195E+2
6.01000E+0,6.57463E-3,6.57463E+1,3.95135E+2
5.95950E+0,6.50978E-3,6.50978E+1,3.87950E+2
5.90900E+0,6.50311E-3,6.50310E+1,3.84268E+2
5.85850E+0,6.46210E-3,6.46210E+1,3.78582E+2
5.80800E+0,6.40106E-3,6.40106E+1,3.71774E+2
5.75750E+0,6.37341E-3,6.37341E+1,3.66949E+2
5.70700E+0,6.28948E-3,6.28948E+1,3.58941E+2
5.65650E+0,6.19793E-3,6.19793E+1,3.50586E+2
5.60600E+0,6.18362E-3,6.18362E+1,3.46654E+2
5.55550E+0,6.11496E-3,6.11496E+1,3.39717E+2
5.50500E+0,6.02627E-3,6.02627E+1,3.31746E+2
5.45450E+0,5.94234E-3,5.94234E+1,3.24125E+2
5.40400E+0,5.86891E-3,5.86891E+1,3.17156E+2
5.35350E+0,5.79453E-3,5.79452E+1,3.10210E+2
5.30300E+0,5.71632E-3,5.71632E+1,3.03137E+2
5.25250E+0,5.63812E-3,5.63812E+1,2.96142E+2
5.20200E+0,5.54085E-3,5.54085E+1,2.88235E+2
5.15150E+0,5.42641E-3,5.42641E+1,2.79541E+2
5.10100E+0,5.33867E-3,5.33867E+1,2.72326E+2
5.05050E+0,5.22613E-3,5.22614E+1,2.63946E+2
5.00000E+0,5.14507E-3,5.14507E+1,2.57254E+2
4.94950E+0,5.09930E-3,5.09930E+1,2.52390E+2
4.89900E+0,5.07069E-3,5.07069E+1,2.48413E+2
4.84850E+0,4.93050E-3,4.93050E+1,2.39055E+2
4.79800E+0,4.81701E-3,4.81701E+1,2.31120E+2
4.74750E+0,4.76074E-3,4.76074E+1,2.26016E+2
4.69700E+0,4.65488E-3,4.65488E+1,2.18640E+2
4.64650E+0,4.58908E-3,4.58908E+1,2.13232E+2
4.59600E+0,4.48608E-3,4.48608E+1,2.06180E+2
4.54550E+0,4.35829E-3,4.35829E+1,1.98106E+2
4.49500E+0,4.26483E-3,4.26483E+1,1.91704E+2
4.44450E+0,4.17709E-3,4.17709E+1,1.85651E+2
4.39400E+0,4.07410E-3,4.07410E+1,1.79016E+2
4.34350E+0,4.00925E-3,4.00925E+1,1.74142E+2
4.29300E+0,3.90720E-3,3.90720E+1,1.67736E+2
4.24250E+0,3.80707E-3,3.80707E+1,1.61515E+2
4.19200E+0,3.68500E-3,3.68500E+1,1.54475E+2
4.14150E+0,3.57342E-3,3.57342E+1,1.47993E+2
4.09100E+0,3.49235E-3,3.49235E+1,1.42872E+2
4.04050E+0,3.39794E-3,3.39794E+1,1.37294E+2
3.99000E+0,3.30830E-3,3.30830E+1,1.32001E+2
3.93950E+0,3.22437E-3,3.22437E+1,1.27024E+2
3.88900E+0,3.12424E-3,3.12424E+1,1.21502E+2
3.83850E+0,3.06511E-3,3.06511E+1,1.17654E+2
3.78800E+0,2.97356E-3,2.97356E+1,1.12638E+2
3.73750E+0,2.88677E-3,2.88677E+1,1.07893E+2
3.68700E+0,2.80571E-3,2.80571E+1,1.03447E+2
3.63650E+0,2.74754E-3,2.74754E+1,9.99141E+1
3.58600E+0,2.65980E-3,2.65980E+1,9.53804E+1
3.53550E+0,2.55203E-3,2.55203E+1,9.02271E+1
3.48500E+0,2.46048E-3,2.46048E+1,8.57477E+1
3.43450E+0,2.44808E-3,2.44808E+1,8.40794E+1
3.38400E+0,2.34222E-3,2.34222E+1,7.92609E+1
3.33350E+0,2.27070E-3,2.27070E+1,7.56938E+1
3.28300E+0,2.20490E-3,2.20490E+1,7.23867E+1
3.23250E+0,2.13337E-3,2.13337E+1,6.89612E+1
3.18200E+0,2.08378E-3,2.08378E+1,6.63058E+1
3.13150E+0,1.99413E-3,1.99413E+1,6.24463E+1
3.08100E+0,1.89304E-3,1.89304E+1,5.83247E+1
3.03050E+0,1.85204E-3,1.85204E+1,5.61260E+1
2.98000E+0,1.78051E-3,1.78051E+1,5.30592E+1
2.92950E+0,1.69945E-3,1.69945E+1,4.97853E+1
2.87900E+0,1.62983E-3,1.62983E+1,4.69228E+1
2.82850E+0,1.59264E-3,1.59264E+1,4.50477E+1
2.77800E+0,1.54877E-3,1.54877E+1,4.30247E+1
2.72750E+0,1.49345E-3,1.49345E+1,4.07340E+1
2.67700E+0,1.43051E-3,1.43051E+1,3.82948E+1
2.62650E+0,1.37711E-3,1.37711E+1,3.61697E+1
2.57600E+0,1.32179E-3,1.32179E+1,3.40494E+1
2.52550E+0,1.26076E-3,1.26076E+1,3.18404E+1
2.47450E+0,1.20926E-3,1.20926E+1,2.99231E+1
2.42400E+0,1.16634E-3,1.16634E+1,2.82722E+1
2.37350E+0,1.09959E-3,1.09959E+1,2.60987E+1
2.32300E+0,1.04713E-3,1.04713E+1,2.43249E+1
2.27250E+0,1.00326E-3,1.00326E+1,2.27992E+1
2.22200E+0,9.62257E-4,9.62257E+0,2.13814E+1
2.17150E+0,9.32694E-4,9.32693E+0,2.02534E+1
2.12100E+0,8.89778E-4,8.89778E+0,1.88722E+1
2.07050E+0,8.55446E-4,8.55446E+0,1.77120E+1
2.02000E+0,8.15392E-4,8.15391E+0,1.64709E+1
1.96950E+0,7.74383E-4,7.74383E+0,1.52515E+1
1.91900E+0,7.35283E-4,7.35283E+0,1.41101E+1
1.86850E+0,7.09534E-4,7.09534E+0,1.32576E+1
1.81800E+0,6.79970E-4,6.79970E+0,1.23619E+1
1.76750E+0,6.47545E-4,6.47545E+0,1.14454E+1
1.71700E+0,6.16074E-4,6.16074E+0,1.05780E+1
1.66650E+0,5.95093E-4,5.95093E+0,9.91722E+0
1.61600E+0,5.58853E-4,5.58853E+0,9.03107E+0
1.56550E+0,5.30243E-4,5.30243E+0,8.30095E+0
1.51500E+0,5.10216E-4,5.10216E+0,7.72977E+0
1.46450E+0,4.98772E-4,4.98772E+0,7.30451E+0
1.41400E+0,4.78744E-4,4.78744E+0,6.76945E+0
1.36350E+0,4.55856E-4,4.55856E+0,6.21560E+0
1.31300E+0,4.32968E-4,4.32968E+0,5.68487E+0
1.26250E+0,4.32968E-4,4.32968E+0,5.46622E+0
1.21200E+0,4.04358E-4,4.04358E+0,4.90082E+0
1.16150E+0,3.84331E-4,3.84331E+0,4.46400E+0
1.11100E+0,3.68118E-4,3.68118E+0,4.08979E+0
1.06050E+0,3.49045E-4,3.49045E+0,3.70162E+0
1.01000E+0,3.33786E-4,3.33786E+0,3.37124E+0
9.59500E-1,3.16620E-4,3.16620E+0,3.03797E+0
9.09000E-1,3.07083E-4,3.07083E+0,2.79139E+0
8.58500E-1,2.94685E-4,2.94685E+0,2.52987E+0
8.08000E-1,2.83241E-4,2.83241E+0,2.28859E+0
7.57500E-1,2.70844E-4,2.70843E+0,2.05164E+0
7.07000E-1,2.61307E-4,2.61307E+0,1.84744E+0
6.56500E-1,2.51770E-4,2.51770E+0,1.65287E+0
6.06000E-1,2.44141E-4,2.44141E+0,1.47949E+0
5.55500E-1,2.41280E-4,2.41280E+0,1.34031E+0
5.05000E-1,2.36511E-4,2.36511E+0,1.19438E+0
4.54500E-1,2.28882E-4,2.28882E+0,1.04027E+0
4.04000E-1,2.26021E-4,2.26021E+0,9.13124E-1
3.53500E-1,2.20299E-4,2.20299E+0,7.78756E-1
3.03000E-1,2.16484E-4,2.16484E+0,6.55947E-1
2.52500E-1,2.13623E-4,2.13623E+0,5.39398E-1
2.02000E-1,2.09808E-4,2.09808E+0,4.23813E-1
1.51500E-1,2.11716E-4,2.11716E+0,3.20749E-1
1.01000E-1,2.12669E-4,2.12669E+0,2.14796E-1
5.05000E-2,2.11716E-4,2.11716E+0,1.06916E-1
0.00000E+0,2.11716E-4,2.11716E+0,0.00000E+0
1.00000E+1,1.24607E-2,1.24607E+2,1.24607E+3
