Tested at The Flinders University of South Australia

Cell Name:,CP156W_2
Notes:,
Cell Area (cm2):,0.100000
Temperature (C):,25.000000
Ideality [LnJ vs. V]: ,212.405
Jsat [Ln J vs. V] (A/m2): ,1.225E+2
Jsat [Ln J vs. V] (mA/cm2): ,1.225E+1
Schottky? : ,No
SBH [Ln J vs. V] (eV): ,0.000
R-Squared [Ln J vs. V]: ,0.981



Voltage (V), Current (A), Current Density (mA/cm2), Power Density (mW/cm2)
1.00000E+1,7.68375E-3,7.68375E+1,7.68375E+2
9.94950E+0,7.56931E-3,7.56931E+1,7.53109E+2
9.89900E+0,7.47299E-3,7.47299E+1,7.39751E+2
9.84850E+0,7.41100E-3,7.41100E+1,7.29873E+2
9.79800E+0,7.30419E-3,7.30419E+1,7.15665E+2
9.74750E+0,7.21931E-3,7.21932E+1,7.03703E+2
9.69700E+0,7.13634E-3,7.13635E+1,6.92011E+2
9.64650E+0,7.09438E-3,7.09438E+1,6.84360E+2
9.59600E+0,7.03716E-3,7.03716E+1,6.75286E+2
9.54550E+0,6.97708E-3,6.97708E+1,6.65997E+2
9.49500E+0,6.92463E-3,6.92463E+1,6.57494E+2
9.44450E+0,6.89793E-3,6.89793E+1,6.51475E+2
9.39400E+0,6.85215E-3,6.85215E+1,6.43691E+2
9.34350E+0,6.79207E-3,6.79207E+1,6.34617E+2
9.29300E+0,6.70815E-3,6.70815E+1,6.23388E+2
9.24250E+0,6.69670E-3,6.69670E+1,6.18943E+2
9.19200E+0,6.65474E-3,6.65474E+1,6.11704E+2
9.14150E+0,6.59943E-3,6.59943E+1,6.03287E+2
9.09100E+0,6.56033E-3,6.56033E+1,5.96399E+2
9.04050E+0,6.53839E-3,6.53839E+1,5.91103E+2
8.99000E+0,6.50597E-3,6.50597E+1,5.84886E+2
8.93950E+0,6.48022E-3,6.48022E+1,5.79299E+2
8.88900E+0,6.42777E-3,6.42776E+1,5.71364E+2
8.83850E+0,6.36673E-3,6.36673E+1,5.62723E+2
8.78800E+0,6.30474E-3,6.30474E+1,5.54061E+2
8.73750E+0,6.28758E-3,6.28757E+1,5.49377E+2
8.68700E+0,6.28567E-3,6.28567E+1,5.46036E+2
8.63650E+0,6.22368E-3,6.22368E+1,5.37508E+2
8.58600E+0,6.18553E-3,6.18553E+1,5.31090E+2
8.53550E+0,6.15311E-3,6.15311E+1,5.25198E+2
8.48500E+0,6.11401E-3,6.11401E+1,5.18773E+2
8.43450E+0,6.06060E-3,6.06060E+1,5.11181E+2
8.38400E+0,6.03962E-3,6.03962E+1,5.06362E+2
8.33350E+0,6.01006E-3,6.01006E+1,5.00848E+2
8.28300E+0,5.93281E-3,5.93281E+1,4.91414E+2
8.23250E+0,5.90324E-3,5.90324E+1,4.85985E+2
8.18200E+0,5.86987E-3,5.86987E+1,4.80272E+2
8.13150E+0,5.85079E-3,5.85079E+1,4.75757E+2
8.08100E+0,5.84030E-3,5.84030E+1,4.71955E+2
8.03050E+0,5.80788E-3,5.80788E+1,4.66402E+2
7.98000E+0,5.75638E-3,5.75638E+1,4.59359E+2
7.92950E+0,5.73063E-3,5.73063E+1,4.54410E+2
7.87900E+0,5.71537E-3,5.71537E+1,4.50314E+2
7.82850E+0,5.68295E-3,5.68294E+1,4.44889E+2
7.77800E+0,5.64384E-3,5.64384E+1,4.38978E+2
7.72750E+0,5.61142E-3,5.61142E+1,4.33622E+2
7.67700E+0,5.56087E-3,5.56088E+1,4.26908E+2
7.62650E+0,5.55229E-3,5.55229E+1,4.23446E+2
7.57600E+0,5.47123E-3,5.47123E+1,4.14500E+2
7.52550E+0,5.47409E-3,5.47409E+1,4.11953E+2
7.47500E+0,5.46074E-3,5.46074E+1,4.08190E+2
7.42450E+0,5.43213E-3,5.43213E+1,4.03308E+2
7.37400E+0,5.37395E-3,5.37395E+1,3.96275E+2
7.32300E+0,5.34534E-3,5.34534E+1,3.91440E+2
7.27250E+0,5.29480E-3,5.29480E+1,3.85064E+2
7.22200E+0,5.27668E-3,5.27668E+1,3.81082E+2
7.17150E+0,5.21374E-3,5.21374E+1,3.73903E+2
7.12100E+0,5.16033E-3,5.16033E+1,3.67467E+2
7.07050E+0,5.15366E-3,5.15366E+1,3.64389E+2
7.02000E+0,5.10406E-3,5.10406E+1,3.58305E+2
6.96950E+0,5.05257E-3,5.05257E+1,3.52139E+2
6.91900E+0,5.02682E-3,5.02682E+1,3.47805E+2
6.86850E+0,4.99725E-3,4.99725E+1,3.43236E+2
6.81800E+0,4.95624E-3,4.95624E+1,3.37917E+2
6.76750E+0,4.89426E-3,4.89426E+1,3.31219E+2
6.71700E+0,4.91715E-3,4.91715E+1,3.30285E+2
6.66650E+0,4.87709E-3,4.87709E+1,3.25131E+2
6.61600E+0,4.82464E-3,4.82464E+1,3.19198E+2
6.56550E+0,4.75502E-3,4.75502E+1,3.12191E+2
6.51500E+0,4.70924E-3,4.70924E+1,3.06807E+2
6.46450E+0,4.65298E-3,4.65298E+1,3.00792E+2
6.41400E+0,4.59766E-3,4.59766E+1,2.94894E+2
6.36350E+0,4.54998E-3,4.54998E+1,2.89538E+2
6.31300E+0,4.50993E-3,4.50993E+1,2.84712E+2
6.26250E+0,4.45271E-3,4.45270E+1,2.78851E+2
6.21200E+0,4.44222E-3,4.44222E+1,2.75950E+2
6.16150E+0,4.40693E-3,4.40693E+1,2.71533E+2
6.11100E+0,4.32491E-3,4.32491E+1,2.64295E+2
6.06050E+0,4.30298E-3,4.30298E+1,2.60782E+2
6.01000E+0,4.24671E-3,4.24671E+1,2.55227E+2
5.95950E+0,4.22287E-3,4.22287E+1,2.51662E+2
5.90900E+0,4.21238E-3,4.21238E+1,2.48909E+2
5.85850E+0,4.20857E-3,4.20856E+1,2.46559E+2
5.80800E+0,4.17995E-3,4.17995E+1,2.42772E+2
5.75750E+0,4.13513E-3,4.13513E+1,2.38080E+2
5.70700E+0,4.08649E-3,4.08649E+1,2.33216E+2
5.65650E+0,4.02355E-3,4.02355E+1,2.27592E+2
5.60600E+0,3.97205E-3,3.97205E+1,2.22673E+2
5.55550E+0,3.90816E-3,3.90816E+1,2.17118E+2
5.50500E+0,3.85571E-3,3.85570E+1,2.12257E+2
5.45450E+0,3.81088E-3,3.81088E+1,2.07865E+2
5.40400E+0,3.78323E-3,3.78323E+1,2.04446E+2
5.35350E+0,3.71551E-3,3.71551E+1,1.98910E+2
5.30300E+0,3.67069E-3,3.67069E+1,1.94657E+2
5.25250E+0,3.65448E-3,3.65448E+1,1.91952E+2
5.20200E+0,3.57342E-3,3.57342E+1,1.85889E+2
5.15150E+0,3.46374E-3,3.46374E+1,1.78435E+2
5.10100E+0,3.43037E-3,3.43037E+1,1.74983E+2
5.05050E+0,3.41320E-3,3.41320E+1,1.72384E+2
5.00000E+0,3.36552E-3,3.36552E+1,1.68276E+2
4.94950E+0,3.35121E-3,3.35121E+1,1.65868E+2
4.89900E+0,3.30925E-3,3.30925E+1,1.62120E+2
4.84850E+0,3.23200E-3,3.23200E+1,1.56704E+2
4.79800E+0,3.19099E-3,3.19099E+1,1.53104E+2
4.74750E+0,3.16048E-3,3.16048E+1,1.50044E+2
4.69700E+0,3.08037E-3,3.08037E+1,1.44685E+2
4.64650E+0,3.04127E-3,3.04127E+1,1.41312E+2
4.59600E+0,2.98500E-3,2.98500E+1,1.37191E+2
4.54550E+0,2.92110E-3,2.92110E+1,1.32779E+2
4.49500E+0,2.84863E-3,2.84862E+1,1.28046E+2
4.44450E+0,2.79999E-3,2.79999E+1,1.24445E+2
4.39400E+0,2.75230E-3,2.75230E+1,1.20936E+2
4.34350E+0,2.69127E-3,2.69127E+1,1.16895E+2
4.29300E+0,2.63500E-3,2.63500E+1,1.13121E+2
4.24250E+0,2.57683E-3,2.57683E+1,1.09322E+2
4.19200E+0,2.51865E-3,2.51865E+1,1.05582E+2
4.14150E+0,2.47860E-3,2.47860E+1,1.02651E+2
4.09100E+0,2.39849E-3,2.39849E+1,9.81223E+1
4.04050E+0,2.34985E-3,2.34985E+1,9.49459E+1
3.99000E+0,2.29073E-3,2.29073E+1,9.14000E+1
3.93950E+0,2.23923E-3,2.23923E+1,8.82143E+1
3.88900E+0,2.18105E-3,2.18105E+1,8.48212E+1
3.83850E+0,2.12574E-3,2.12574E+1,8.15965E+1
3.78800E+0,2.06184E-3,2.06184E+1,7.81027E+1
3.73750E+0,2.01511E-3,2.01511E+1,7.53149E+1
3.68700E+0,1.95312E-3,1.95312E+1,7.20117E+1
3.63650E+0,1.90544E-3,1.90544E+1,6.92914E+1
3.58600E+0,1.85299E-3,1.85299E+1,6.64482E+1
3.53550E+0,1.81198E-3,1.81198E+1,6.40626E+1
3.48500E+0,1.77574E-3,1.77574E+1,6.18846E+1
3.43450E+0,1.70422E-3,1.70422E+1,5.85313E+1
3.38400E+0,1.66225E-3,1.66225E+1,5.62507E+1
3.33350E+0,1.62220E-3,1.62220E+1,5.40760E+1
3.28300E+0,1.57738E-3,1.57738E+1,5.17853E+1
3.23250E+0,1.51920E-3,1.51920E+1,4.91082E+1
3.18200E+0,1.46770E-3,1.46770E+1,4.67024E+1
3.13150E+0,1.41907E-3,1.41907E+1,4.44381E+1
3.08100E+0,1.39523E-3,1.39523E+1,4.29869E+1
3.03050E+0,1.35422E-3,1.35422E+1,4.10396E+1
2.98000E+0,1.29890E-3,1.29890E+1,3.87073E+1
2.92950E+0,1.26171E-3,1.26171E+1,3.69618E+1
2.87900E+0,1.22738E-3,1.22738E+1,3.53362E+1
2.82850E+0,1.18446E-3,1.18446E+1,3.35026E+1
2.77800E+0,1.15204E-3,1.15204E+1,3.20036E+1
2.72750E+0,1.11771E-3,1.11771E+1,3.04854E+1
2.67700E+0,1.07670E-3,1.07670E+1,2.88232E+1
2.62650E+0,1.03664E-3,1.03664E+1,2.72275E+1
2.57600E+0,1.00899E-3,1.00899E+1,2.59915E+1
2.52550E+0,9.67979E-4,9.67979E+0,2.44463E+1
2.47450E+0,9.30786E-4,9.30786E+0,2.30323E+1
2.42400E+0,8.89778E-4,8.89778E+0,2.15682E+1
2.37350E+0,8.59261E-4,8.59261E+0,2.03946E+1
2.32300E+0,8.24928E-4,8.24928E+0,1.91631E+1
2.27250E+0,7.86781E-4,7.86781E+0,1.78796E+1
2.22200E+0,7.54356E-4,7.54356E+0,1.67618E+1
2.17150E+0,7.26700E-4,7.26700E+0,1.57803E+1
2.12100E+0,6.91414E-4,6.91414E+0,1.46649E+1
2.07050E+0,6.62804E-4,6.62804E+0,1.37233E+1
2.02000E+0,6.34193E-4,6.34193E+0,1.28107E+1
1.96950E+0,6.08444E-4,6.08444E+0,1.19833E+1
1.91900E+0,5.87463E-4,5.87463E+0,1.12734E+1
1.86850E+0,5.60761E-4,5.60760E+0,1.04778E+1
1.81800E+0,5.36919E-4,5.36919E+0,9.76118E+0
1.76750E+0,5.14031E-4,5.14030E+0,9.08549E+0
1.71700E+0,4.91142E-4,4.91142E+0,8.43291E+0
1.66650E+0,4.70161E-4,4.70161E+0,7.83524E+0
1.61600E+0,4.51088E-4,4.51088E+0,7.28958E+0
1.56550E+0,4.31061E-4,4.31061E+0,6.74826E+0
1.51500E+0,4.11987E-4,4.11987E+0,6.24161E+0
1.46450E+0,3.92914E-4,3.92914E+0,5.75422E+0
1.41400E+0,3.77655E-4,3.77655E+0,5.34004E+0
1.36350E+0,3.63350E-4,3.63350E+0,4.95428E+0
1.31300E+0,3.51906E-4,3.51906E+0,4.62052E+0
1.26250E+0,3.35693E-4,3.35693E+0,4.23813E+0
1.21200E+0,3.28064E-4,3.28064E+0,3.97614E+0
1.16150E+0,3.22342E-4,3.22342E+0,3.74400E+0
1.11100E+0,3.17573E-4,3.17573E+0,3.52824E+0
1.06050E+0,3.02315E-4,3.02315E+0,3.20605E+0
1.01000E+0,2.86102E-4,2.86102E+0,2.88963E+0
9.59500E-1,2.79427E-4,2.79427E+0,2.68110E+0
9.09000E-1,2.63214E-4,2.63214E+0,2.39262E+0
8.58500E-1,2.56538E-4,2.56538E+0,2.20238E+0
8.08000E-1,2.47955E-4,2.47955E+0,2.00348E+0
7.57500E-1,2.38419E-4,2.38419E+0,1.80602E+0
7.07000E-1,2.33650E-4,2.33650E+0,1.65191E+0
6.56500E-1,2.25067E-4,2.25067E+0,1.47757E+0
6.06000E-1,6.45637E-4,6.45637E+0,3.91256E+0
5.55500E-1,5.60761E-4,5.60760E+0,3.11502E+0
5.05000E-1,3.82423E-4,3.82423E+0,1.93124E+0
4.54500E-1,2.99454E-4,2.99454E+0,1.36102E+0
4.04000E-1,4.28200E-4,4.28200E+0,1.72993E+0
3.53500E-1,3.92914E-4,3.92914E+0,1.38895E+0
3.03000E-1,3.68118E-4,3.68118E+0,1.11540E+0
2.52500E-1,3.42369E-4,3.42369E+0,8.64482E-1
2.02000E-1,2.66075E-4,2.66075E+0,5.37472E-1
1.51500E-1,2.70844E-4,2.70843E+0,4.10328E-1
1.01000E-1,2.44141E-4,2.44141E+0,2.46582E-1
5.05000E-2,2.04086E-4,2.04086E+0,1.03064E-1
0.00000E+0,1.88828E-4,1.88827E+0,0.00000E+0
1.00000E+1,8.39424E-3,8.39424E+1,8.39424E+2
