Tested at The Flinders University of South Australia

Cell Name:,CP156T_6
Notes:,
Cell Area (cm2):,0.100000
Temperature (C):,25.000000
Ideality [LnJ vs. V]: ,251.342
Jsat [Ln J vs. V] (A/m2): ,1.048E+3
Jsat [Ln J vs. V] (mA/cm2): ,1.048E+2
Schottky? : ,No
SBH [Ln J vs. V] (eV): ,0.000
R-Squared [Ln J vs. V]: ,0.993



Voltage (V), Current (A), Current Density (mA/cm2), Power Density (mW/cm2)
1.00000E+1,2.51865E-2,2.51865E+2,2.51865E+3
9.94950E+0,3.22771E-2,3.22771E+2,3.21141E+3
9.89900E+0,3.57056E-2,3.57056E+2,3.53449E+3
9.84850E+0,3.79009E-2,3.79009E+2,3.73267E+3
9.79800E+0,3.93429E-2,3.93429E+2,3.85482E+3
9.74750E+0,4.05045E-2,4.05045E+2,3.94817E+3
9.69700E+0,4.13237E-2,4.13237E+2,4.00716E+3
9.64650E+0,4.19731E-2,4.19731E+2,4.04894E+3
9.59600E+0,4.24805E-2,4.24805E+2,4.07643E+3
9.54550E+0,4.27103E-2,4.27103E+2,4.07691E+3
9.49500E+0,4.29239E-2,4.29239E+2,4.07563E+3
9.44450E+0,4.32835E-2,4.32835E+2,4.08791E+3
9.39400E+0,4.32911E-2,4.32911E+2,4.06676E+3
9.34350E+0,4.31375E-2,4.31375E+2,4.03056E+3
9.29300E+0,4.31805E-2,4.31805E+2,4.01276E+3
9.24250E+0,4.30574E-2,4.30574E+2,3.97958E+3
9.19200E+0,4.30079E-2,4.30078E+2,3.95328E+3
9.14150E+0,4.28724E-2,4.28724E+2,3.91918E+3
9.09100E+0,4.26550E-2,4.26550E+2,3.87777E+3
9.04050E+0,4.23431E-2,4.23431E+2,3.82803E+3
8.99000E+0,4.21286E-2,4.21286E+2,3.78736E+3
8.93950E+0,4.18768E-2,4.18768E+2,3.74358E+3
8.88900E+0,4.15192E-2,4.15192E+2,3.69064E+3
8.83850E+0,4.11625E-2,4.11625E+2,3.63815E+3
8.78800E+0,4.06332E-2,4.06332E+2,3.57085E+3
8.73750E+0,4.01411E-2,4.01411E+2,3.50733E+3
8.68700E+0,3.96729E-2,3.96728E+2,3.44638E+3
8.63650E+0,3.91893E-2,3.91893E+2,3.38459E+3
8.58600E+0,3.87983E-2,3.87983E+2,3.33122E+3
8.53550E+0,3.82824E-2,3.82824E+2,3.26759E+3
8.48500E+0,3.75614E-2,3.75614E+2,3.18709E+3
8.43450E+0,3.70626E-2,3.70626E+2,3.12605E+3
8.38400E+0,3.65009E-2,3.65009E+2,3.06024E+3
8.33350E+0,3.59354E-2,3.59354E+2,2.99468E+3
8.28300E+0,3.52306E-2,3.52306E+2,2.91815E+3
8.23250E+0,3.46737E-2,3.46737E+2,2.85451E+3
8.18200E+0,3.40471E-2,3.40471E+2,2.78574E+3
8.13150E+0,3.33557E-2,3.33557E+2,2.71232E+3
8.08100E+0,3.26939E-2,3.26939E+2,2.64199E+3
8.03050E+0,3.20816E-2,3.20816E+2,2.57631E+3
7.98000E+0,3.14465E-2,3.14465E+2,2.50943E+3
7.92950E+0,3.08456E-2,3.08456E+2,2.44591E+3
7.87900E+0,3.02458E-2,3.02458E+2,2.38307E+3
7.82850E+0,2.96946E-2,2.96946E+2,2.32464E+3
7.77800E+0,2.91052E-2,2.91052E+2,2.26380E+3
7.72750E+0,2.83785E-2,2.83785E+2,2.19295E+3
7.67700E+0,2.77948E-2,2.77948E+2,2.13381E+3
7.62650E+0,2.71206E-2,2.71206E+2,2.06835E+3
7.57600E+0,2.65551E-2,2.65551E+2,2.01181E+3
7.52550E+0,2.59428E-2,2.59428E+2,1.95233E+3
7.47500E+0,2.54755E-2,2.54755E+2,1.90429E+3
7.42450E+0,2.49433E-2,2.49433E+2,1.85192E+3
7.37400E+0,2.44570E-2,2.44570E+2,1.80346E+3
7.32300E+0,2.38590E-2,2.38590E+2,1.74720E+3
7.27250E+0,2.33059E-2,2.33059E+2,1.69492E+3
7.22200E+0,2.26898E-2,2.26898E+2,1.63866E+3
7.17150E+0,2.20499E-2,2.20499E+2,1.58131E+3
7.12100E+0,2.15177E-2,2.15177E+2,1.53228E+3
7.07050E+0,2.10504E-2,2.10504E+2,1.48837E+3
7.02000E+0,2.05355E-2,2.05355E+2,1.44159E+3
6.96950E+0,2.00033E-2,2.00033E+2,1.39413E+3
6.91900E+0,1.95751E-2,1.95751E+2,1.35440E+3
6.86850E+0,1.90840E-2,1.90840E+2,1.31078E+3
6.81800E+0,1.85575E-2,1.85575E+2,1.26525E+3
6.76750E+0,1.80016E-2,1.80016E+2,1.21826E+3
6.71700E+0,1.76411E-2,1.76411E+2,1.18495E+3
6.66650E+0,1.72453E-2,1.72453E+2,1.14966E+3
6.61600E+0,1.67999E-2,1.67999E+2,1.11148E+3
6.56550E+0,1.63364E-2,1.63364E+2,1.07257E+3
6.51500E+0,1.60122E-2,1.60122E+2,1.04319E+3
6.46450E+0,1.56946E-2,1.56946E+2,1.01458E+3
6.41400E+0,1.53637E-2,1.53637E+2,9.85427E+2
6.36350E+0,1.49889E-2,1.49889E+2,9.53819E+2
6.31300E+0,1.45836E-2,1.45836E+2,9.20662E+2
6.26250E+0,1.43013E-2,1.43013E+2,8.95619E+2
6.21200E+0,1.39799E-2,1.39799E+2,8.68432E+2
6.16150E+0,1.36213E-2,1.36213E+2,8.39278E+2
6.11100E+0,1.32894E-2,1.32894E+2,8.12118E+2
6.06050E+0,1.30138E-2,1.30138E+2,7.88704E+2
6.01000E+0,1.26867E-2,1.26867E+2,7.62472E+2
5.95950E+0,1.24455E-2,1.24454E+2,7.41687E+2
5.90900E+0,1.21498E-2,1.21498E+2,7.17932E+2
5.85850E+0,1.18856E-2,1.18856E+2,6.96320E+2
5.80800E+0,1.15938E-2,1.15938E+2,6.73369E+2
5.75750E+0,1.13163E-2,1.13163E+2,6.51536E+2
5.70700E+0,1.10865E-2,1.10865E+2,6.32704E+2
5.65650E+0,1.08299E-2,1.08299E+2,6.12595E+2
5.60600E+0,1.06001E-2,1.06001E+2,5.94241E+2
5.55550E+0,1.03493E-2,1.03493E+2,5.74954E+2
5.50500E+0,1.01042E-2,1.01042E+2,5.56235E+2
5.45450E+0,9.92203E-3,9.92203E+1,5.41197E+2
5.40400E+0,9.71794E-3,9.71794E+1,5.25158E+2
5.35350E+0,9.51290E-3,9.51290E+1,5.09273E+2
5.30300E+0,9.34124E-3,9.34124E+1,4.95366E+2
5.25250E+0,9.11713E-3,9.11713E+1,4.78877E+2
5.20200E+0,8.88443E-3,8.88443E+1,4.62168E+2
5.15150E+0,8.66032E-3,8.66032E+1,4.46136E+2
5.10100E+0,8.50964E-3,8.50964E+1,4.34077E+2
5.05050E+0,8.34560E-3,8.34560E+1,4.21495E+2
5.00000E+0,8.15391E-3,8.15391E+1,4.07696E+2
4.94950E+0,7.96604E-3,7.96604E+1,3.94279E+2
4.89900E+0,7.79057E-3,7.79056E+1,3.81660E+2
4.84850E+0,7.57408E-3,7.57408E+1,3.67229E+2
4.79800E+0,7.41672E-3,7.41672E+1,3.55854E+2
4.74750E+0,7.28989E-3,7.28989E+1,3.46087E+2
4.69700E+0,7.13253E-3,7.13253E+1,3.35015E+2
4.64650E+0,6.93417E-3,6.93417E+1,3.22196E+2
4.59600E+0,6.72627E-3,6.72626E+1,3.09139E+2
4.54550E+0,6.56033E-3,6.56033E+1,2.98200E+2
4.49500E+0,6.41727E-3,6.41727E+1,2.88456E+2
4.44450E+0,6.26946E-3,6.26945E+1,2.78646E+2
4.39400E+0,6.14643E-3,6.14643E+1,2.70074E+2
4.34350E+0,5.97763E-3,5.97763E+1,2.59638E+2
4.29300E+0,5.81169E-3,5.81169E+1,2.49496E+2
4.24250E+0,5.65338E-3,5.65338E+1,2.39845E+2
4.19200E+0,5.51701E-3,5.51701E+1,2.31273E+2
4.14150E+0,5.36346E-3,5.36346E+1,2.22128E+2
4.09100E+0,5.24616E-3,5.24616E+1,2.14620E+2
4.04050E+0,5.11360E-3,5.11360E+1,2.06615E+2
3.99000E+0,4.96483E-3,4.96483E+1,1.98097E+2
3.93950E+0,4.82273E-3,4.82273E+1,1.89991E+2
3.88900E+0,4.68254E-3,4.68254E+1,1.82104E+2
3.83850E+0,4.55475E-3,4.55475E+1,1.74834E+2
3.78800E+0,4.42028E-3,4.42028E+1,1.67440E+2
3.73750E+0,4.29344E-3,4.29344E+1,1.60467E+2
3.68700E+0,4.16279E-3,4.16279E+1,1.53482E+2
3.63650E+0,4.03309E-3,4.03309E+1,1.46663E+2
3.58600E+0,3.91960E-3,3.91960E+1,1.40557E+2
3.53550E+0,3.80325E-3,3.80325E+1,1.34464E+2
3.48500E+0,3.67546E-3,3.67546E+1,1.28090E+2
3.43450E+0,3.56388E-3,3.56388E+1,1.22401E+2
3.38400E+0,3.44562E-3,3.44562E+1,1.16600E+2
3.33350E+0,3.32832E-3,3.32832E+1,1.10950E+2
3.28300E+0,3.22914E-3,3.22914E+1,1.06013E+2
3.23250E+0,3.11947E-3,3.11947E+1,1.00837E+2
3.18200E+0,3.01361E-3,3.01361E+1,9.58931E+1
3.13150E+0,2.89440E-3,2.89440E+1,9.06382E+1
3.08100E+0,2.78473E-3,2.78473E+1,8.57975E+1
3.03050E+0,2.67696E-3,2.67696E+1,8.11254E+1
2.98000E+0,2.57301E-3,2.57301E+1,7.66758E+1
2.92950E+0,2.48241E-3,2.48241E+1,7.27223E+1
2.87900E+0,2.37846E-3,2.37846E+1,6.84760E+1
2.82850E+0,2.28787E-3,2.28787E+1,6.47123E+1
2.77800E+0,2.18964E-3,2.18964E+1,6.08281E+1
2.72750E+0,2.09427E-3,2.09427E+1,5.71212E+1
2.67700E+0,2.01511E-3,2.01511E+1,5.39446E+1
2.62650E+0,1.92833E-3,1.92833E+1,5.06476E+1
2.57600E+0,1.84727E-3,1.84727E+1,4.75856E+1
2.52550E+0,1.76907E-3,1.76907E+1,4.46778E+1
2.47450E+0,1.68800E-3,1.68800E+1,4.17697E+1
2.42400E+0,1.61076E-3,1.61076E+1,3.90447E+1
2.37350E+0,1.54209E-3,1.54209E+1,3.66015E+1
2.32300E+0,1.46770E-3,1.46770E+1,3.40948E+1
2.27250E+0,1.39523E-3,1.39523E+1,3.17065E+1
2.22200E+0,1.33133E-3,1.33133E+1,2.95821E+1
2.17150E+0,1.27315E-3,1.27315E+1,2.76466E+1
2.12100E+0,1.21021E-3,1.21021E+1,2.56686E+1
2.07050E+0,1.15871E-3,1.15871E+1,2.39912E+1
2.02000E+0,1.09959E-3,1.09959E+1,2.22116E+1
1.96950E+0,1.04427E-3,1.04427E+1,2.05670E+1
1.91900E+0,9.87053E-4,9.87053E+0,1.89415E+1
1.86850E+0,9.41277E-4,9.41277E+0,1.75878E+1
1.81800E+0,8.91685E-4,8.91685E+0,1.62108E+1
1.76750E+0,8.41141E-4,8.41141E+0,1.48672E+1
1.71700E+0,7.98225E-4,7.98225E+0,1.37055E+1
1.66650E+0,7.53403E-4,7.53403E+0,1.25555E+1
1.61600E+0,7.14302E-4,7.14302E+0,1.15431E+1
1.56550E+0,6.80924E-4,6.80923E+0,1.06599E+1
1.51500E+0,6.43730E-4,6.43730E+0,9.75251E+0
1.46450E+0,6.09398E-4,6.09398E+0,8.92463E+0
1.41400E+0,5.78880E-4,5.78880E+0,8.18537E+0
1.36350E+0,5.48363E-4,5.48363E+0,7.47693E+0
1.31300E+0,5.15938E-4,5.15938E+0,6.77426E+0
1.26250E+0,4.87328E-4,4.87328E+0,6.15251E+0
1.21200E+0,4.58717E-4,4.58717E+0,5.55965E+0
1.16150E+0,4.35829E-4,4.35829E+0,5.06216E+0
1.11100E+0,4.14848E-4,4.14848E+0,4.60896E+0
1.06050E+0,3.93868E-4,3.93867E+0,4.17696E+0
1.01000E+0,3.74794E-4,3.74794E+0,3.78542E+0
9.59500E-1,3.54767E-4,3.54767E+0,3.40399E+0
9.09000E-1,3.31879E-4,3.31879E+0,3.01678E+0
8.58500E-1,3.17573E-4,3.17573E+0,2.72637E+0
8.08000E-1,3.05176E-4,3.05176E+0,2.46582E+0
7.57500E-1,2.95639E-4,2.95639E+0,2.23947E+0
7.07000E-1,2.83241E-4,2.83241E+0,2.00252E+0
6.56500E-1,2.69890E-4,2.69890E+0,1.77183E+0
6.06000E-1,2.59399E-4,2.59399E+0,1.57196E+0
5.55500E-1,2.49863E-4,2.49863E+0,1.38799E+0
5.05000E-1,2.40326E-4,2.40326E+0,1.21365E+0
4.54500E-1,2.31743E-4,2.31743E+0,1.05327E+0
4.04000E-1,2.27928E-4,2.27928E+0,9.20830E-1
3.53500E-1,2.21252E-4,2.21252E+0,7.82127E-1
3.03000E-1,2.14577E-4,2.14577E+0,6.50167E-1
2.52500E-1,2.08855E-4,2.08855E+0,5.27358E-1
2.02000E-1,2.05994E-4,2.05994E+0,4.16107E-1
1.51500E-1,2.02179E-4,2.02179E+0,3.06301E-1
1.01000E-1,1.99318E-4,1.99318E+0,2.01311E-1
5.05000E-2,1.98364E-4,1.98364E+0,1.00174E-1
0.00000E+0,1.98364E-4,1.98364E+0,0.00000E+0
1.00000E+1,3.37009E-2,3.37009E+2,3.37009E+3
