Tested at The Flinders University of South Australia

Cell Name:,CP156X_1R
Notes:,
Cell Area (cm2):,0.100000
Temperature (C):,25.000000
Ideality [LnJ vs. V]: ,270.945
Jsat [Ln J vs. V] (A/m2): ,5.003E+2
Jsat [Ln J vs. V] (mA/cm2): ,5.003E+1
Schottky? : ,No
SBH [Ln J vs. V] (eV): ,0.000
R-Squared [Ln J vs. V]: ,0.999



Voltage (V), Current (A), Current Density (mA/cm2), Power Density (mW/cm2)
1.00000E+1,1.61247E-2,1.61247E+2,1.61247E+3
9.94950E+0,1.73550E-2,1.73550E+2,1.72673E+3
9.89900E+0,1.79329E-2,1.79329E+2,1.77518E+3
9.84850E+0,1.82657E-2,1.82657E+2,1.79890E+3
9.79800E+0,1.85032E-2,1.85032E+2,1.81294E+3
9.74750E+0,1.86920E-2,1.86920E+2,1.82200E+3
9.69700E+0,1.88198E-2,1.88198E+2,1.82496E+3
9.64650E+0,1.88885E-2,1.88885E+2,1.82208E+3
9.59600E+0,1.89095E-2,1.89095E+2,1.81455E+3
9.54550E+0,1.88923E-2,1.88923E+2,1.80336E+3
9.49500E+0,1.88885E-2,1.88885E+2,1.79346E+3
9.44450E+0,1.88761E-2,1.88761E+2,1.78275E+3
9.39400E+0,1.88627E-2,1.88627E+2,1.77196E+3
9.34350E+0,1.88360E-2,1.88360E+2,1.75994E+3
9.29300E+0,1.87874E-2,1.87874E+2,1.74591E+3
9.24250E+0,1.87063E-2,1.87063E+2,1.72893E+3
9.19200E+0,1.86005E-2,1.86005E+2,1.70975E+3
9.14150E+0,1.84937E-2,1.84936E+2,1.69060E+3
9.09100E+0,1.84536E-2,1.84536E+2,1.67762E+3
9.04050E+0,1.83239E-2,1.83239E+2,1.65657E+3
8.99000E+0,1.81990E-2,1.81990E+2,1.63609E+3
8.93950E+0,1.80540E-2,1.80540E+2,1.61394E+3
8.88900E+0,1.79481E-2,1.79481E+2,1.59541E+3
8.83850E+0,1.78442E-2,1.78442E+2,1.57716E+3
8.78800E+0,1.77593E-2,1.77593E+2,1.56069E+3
8.73750E+0,1.76334E-2,1.76334E+2,1.54072E+3
8.68700E+0,1.74742E-2,1.74742E+2,1.51798E+3
8.63650E+0,1.73178E-2,1.73178E+2,1.49565E+3
8.58600E+0,1.71461E-2,1.71461E+2,1.47217E+3
8.53550E+0,1.70193E-2,1.70193E+2,1.45268E+3
8.48500E+0,1.68829E-2,1.68829E+2,1.43251E+3
8.43450E+0,1.67303E-2,1.67303E+2,1.41112E+3
8.38400E+0,1.65682E-2,1.65682E+2,1.38908E+3
8.33350E+0,1.64356E-2,1.64356E+2,1.36966E+3
8.28300E+0,1.62353E-2,1.62353E+2,1.34477E+3
8.23250E+0,1.60637E-2,1.60637E+2,1.32244E+3
8.18200E+0,1.58968E-2,1.58968E+2,1.30068E+3
8.13150E+0,1.57490E-2,1.57490E+2,1.28063E+3
8.08100E+0,1.55621E-2,1.55621E+2,1.25757E+3
8.03050E+0,1.53952E-2,1.53952E+2,1.23631E+3
7.98000E+0,1.52187E-2,1.52187E+2,1.21445E+3
7.92950E+0,1.50480E-2,1.50480E+2,1.19323E+3
7.87900E+0,1.48859E-2,1.48859E+2,1.17286E+3
7.82850E+0,1.47495E-2,1.47495E+2,1.15467E+3
7.77800E+0,1.45531E-2,1.45531E+2,1.13194E+3
7.72750E+0,1.43909E-2,1.43910E+2,1.11206E+3
7.67700E+0,1.42069E-2,1.42069E+2,1.09066E+3
7.62650E+0,1.40247E-2,1.40247E+2,1.06960E+3
7.57600E+0,1.38531E-2,1.38531E+2,1.04951E+3
7.52550E+0,1.36910E-2,1.36909E+2,1.03031E+3
7.47500E+0,1.35279E-2,1.35279E+2,1.01121E+3
7.42450E+0,1.33677E-2,1.33677E+2,9.92481E+2
7.37400E+0,1.31807E-2,1.31807E+2,9.71947E+2
7.32300E+0,1.29843E-2,1.29843E+2,9.50839E+2
7.27250E+0,1.28279E-2,1.28279E+2,9.32907E+2
7.22200E+0,1.26600E-2,1.26600E+2,9.14307E+2
7.17150E+0,1.24874E-2,1.24874E+2,8.95535E+2
7.12100E+0,1.23358E-2,1.23358E+2,8.78431E+2
7.07050E+0,1.21593E-2,1.21593E+2,8.59727E+2
7.02000E+0,1.19810E-2,1.19810E+2,8.41067E+2
6.96950E+0,1.18084E-2,1.18084E+2,8.22986E+2
6.91900E+0,1.16415E-2,1.16415E+2,8.05475E+2
6.86850E+0,1.14851E-2,1.14851E+2,7.88854E+2
6.81800E+0,1.13249E-2,1.13249E+2,7.72130E+2
6.76750E+0,1.11675E-2,1.11675E+2,7.55763E+2
6.71700E+0,1.10073E-2,1.10073E+2,7.39361E+2
6.66650E+0,1.08480E-2,1.08480E+2,7.23185E+2
6.61600E+0,1.06964E-2,1.06964E+2,7.07674E+2
6.56550E+0,1.05085E-2,1.05085E+2,6.89938E+2
6.51500E+0,1.03617E-2,1.03617E+2,6.75063E+2
6.46450E+0,1.02091E-2,1.02091E+2,6.59966E+2
6.41400E+0,1.00403E-2,1.00403E+2,6.43984E+2
6.36350E+0,9.87530E-3,9.87530E+1,6.28415E+2
6.31300E+0,9.71985E-3,9.71985E+1,6.13614E+2
6.26250E+0,9.57394E-3,9.57394E+1,5.99568E+2
6.21200E+0,9.40895E-3,9.40895E+1,5.84484E+2
6.16150E+0,9.26113E-3,9.26113E+1,5.70625E+2
6.11100E+0,9.09901E-3,9.09901E+1,5.56040E+2
6.06050E+0,8.94451E-3,8.94451E+1,5.42082E+2
6.01000E+0,8.80527E-3,8.80527E+1,5.29197E+2
5.95950E+0,8.64983E-3,8.64983E+1,5.15486E+2
5.90900E+0,8.50201E-3,8.50201E+1,5.02384E+2
5.85850E+0,8.35705E-3,8.35705E+1,4.89598E+2
5.80800E+0,8.21972E-3,8.21972E+1,4.77401E+2
5.75750E+0,8.08048E-3,8.08048E+1,4.65234E+2
5.70700E+0,7.92503E-3,7.92503E+1,4.52282E+2
5.65650E+0,7.77817E-3,7.77817E+1,4.39972E+2
5.60600E+0,7.62653E-3,7.62653E+1,4.27543E+2
5.55550E+0,7.48825E-3,7.48825E+1,4.16010E+2
5.50500E+0,7.34711E-3,7.34711E+1,4.04458E+2
5.45450E+0,7.20501E-3,7.20501E+1,3.92997E+2
5.40400E+0,7.06577E-3,7.06577E+1,3.81834E+2
5.35350E+0,6.93607E-3,6.93607E+1,3.71323E+2
5.30300E+0,6.80160E-3,6.80160E+1,3.60689E+2
5.25250E+0,6.67572E-3,6.67572E+1,3.50642E+2
5.20200E+0,6.54984E-3,6.54984E+1,3.40722E+2
5.15150E+0,6.42872E-3,6.42872E+1,3.31175E+2
5.10100E+0,6.29997E-3,6.29997E+1,3.21362E+2
5.05050E+0,6.16646E-3,6.16646E+1,3.11437E+2
5.00000E+0,6.03771E-3,6.03771E+1,3.01886E+2
4.94950E+0,5.90992E-3,5.90992E+1,2.92511E+2
4.89900E+0,5.78785E-3,5.78785E+1,2.83547E+2
4.84850E+0,5.66101E-3,5.66101E+1,2.74474E+2
4.79800E+0,5.54085E-3,5.54085E+1,2.65850E+2
4.74750E+0,5.42068E-3,5.42068E+1,2.57347E+2
4.69700E+0,5.29671E-3,5.29671E+1,2.48786E+2
4.64650E+0,5.18417E-3,5.18417E+1,2.40883E+2
4.59600E+0,5.06687E-3,5.06687E+1,2.32873E+2
4.54550E+0,4.95052E-3,4.95052E+1,2.25026E+2
4.49500E+0,4.83322E-3,4.83322E+1,2.17253E+2
4.44450E+0,4.72259E-3,4.72259E+1,2.09896E+2
4.39400E+0,4.62437E-3,4.62437E+1,2.03195E+2
4.34350E+0,4.51756E-3,4.51756E+1,1.96220E+2
4.29300E+0,4.39930E-3,4.39930E+1,1.88862E+2
4.24250E+0,4.28581E-3,4.28581E+1,1.81826E+2
4.19200E+0,4.18663E-3,4.18663E+1,1.75504E+2
4.14150E+0,4.07982E-3,4.07982E+1,1.68966E+2
4.09100E+0,3.97873E-3,3.97873E+1,1.62770E+2
4.04050E+0,3.87192E-3,3.87192E+1,1.56445E+2
3.99000E+0,3.77274E-3,3.77274E+1,1.50532E+2
3.93950E+0,3.66783E-3,3.66783E+1,1.44494E+2
3.88900E+0,3.57342E-3,3.57342E+1,1.38970E+2
3.83850E+0,3.47424E-3,3.47424E+1,1.33359E+2
3.78800E+0,3.37315E-3,3.37315E+1,1.27775E+2
3.73750E+0,3.28255E-3,3.28255E+1,1.22685E+2
3.68700E+0,3.18813E-3,3.18813E+1,1.17546E+2
3.63650E+0,3.09753E-3,3.09753E+1,1.12642E+2
3.58600E+0,3.00312E-3,3.00312E+1,1.07692E+2
3.53550E+0,2.91538E-3,2.91538E+1,1.03073E+2
3.48500E+0,2.82860E-3,2.82860E+1,9.85766E+1
3.43450E+0,2.73991E-3,2.73991E+1,9.41021E+1
3.38400E+0,2.65312E-3,2.65312E+1,8.97816E+1
3.33350E+0,2.56538E-3,2.56538E+1,8.55171E+1
3.28300E+0,2.48337E-3,2.48337E+1,8.15290E+1
3.23250E+0,2.39658E-3,2.39658E+1,7.74696E+1
3.18200E+0,2.30980E-3,2.30980E+1,7.34978E+1
3.13150E+0,2.22397E-3,2.22397E+1,6.96436E+1
3.08100E+0,2.14672E-3,2.14672E+1,6.61405E+1
3.03050E+0,2.07424E-3,2.07424E+1,6.28599E+1
2.98000E+0,1.99795E-3,1.99795E+1,5.95389E+1
2.92950E+0,1.92356E-3,1.92356E+1,5.63507E+1
2.87900E+0,1.84822E-3,1.84822E+1,5.32103E+1
2.82850E+0,1.77383E-3,1.77383E+1,5.01729E+1
2.77800E+0,1.69849E-3,1.69849E+1,4.71842E+1
2.72750E+0,1.63078E-3,1.63078E+1,4.44796E+1
2.67700E+0,1.56021E-3,1.56021E+1,4.17668E+1
2.62650E+0,1.49345E-3,1.49345E+1,3.92256E+1
2.57600E+0,1.42860E-3,1.42860E+1,3.68008E+1
2.52550E+0,1.36089E-3,1.36089E+1,3.43694E+1
2.47450E+0,1.29986E-3,1.29986E+1,3.21650E+1
2.42400E+0,1.25313E-3,1.25313E+1,3.03758E+1
2.37350E+0,1.31226E-3,1.31226E+1,3.11464E+1
2.32300E+0,1.26362E-3,1.26362E+1,2.93538E+1
2.27250E+0,1.20926E-3,1.20926E+1,2.74804E+1
2.22200E+0,1.15299E-3,1.15299E+1,2.56195E+1
2.17150E+0,1.09768E-3,1.09768E+1,2.38361E+1
2.12100E+0,1.03474E-3,1.03474E+1,2.19468E+1
2.07050E+0,9.78470E-4,9.78470E+0,2.02592E+1
2.02000E+0,9.24110E-4,9.24110E+0,1.86670E+1
1.96950E+0,8.75473E-4,8.75473E+0,1.72424E+1
1.91900E+0,8.22067E-4,8.22067E+0,1.57755E+1
1.86850E+0,7.74383E-4,7.74383E+0,1.44694E+1
1.81800E+0,7.28607E-4,7.28607E+0,1.32461E+1
1.76750E+0,6.82831E-4,6.82831E+0,1.20690E+1
1.71700E+0,6.39915E-4,6.39915E+0,1.09873E+1
1.66650E+0,5.99861E-4,5.99861E+0,9.99669E+0
1.61600E+0,5.65529E-4,5.65529E+0,9.13895E+0
1.56550E+0,5.33104E-4,5.33104E+0,8.34574E+0
1.51500E+0,4.98772E-4,4.98772E+0,7.55639E+0
1.46450E+0,4.69208E-4,4.69208E+0,6.87155E+0
1.41400E+0,4.42505E-4,4.42505E+0,6.25702E+0
1.36350E+0,4.17709E-4,4.17709E+0,5.69547E+0
1.31300E+0,3.93868E-4,3.93867E+0,5.17148E+0
1.26250E+0,3.69072E-4,3.69072E+0,4.65953E+0
1.21200E+0,3.48091E-4,3.48091E+0,4.21886E+0
1.16150E+0,3.29971E-4,3.29971E+0,3.83262E+0
1.11100E+0,3.12805E-4,3.12805E+0,3.47527E+0
1.06050E+0,2.99454E-4,2.99454E+0,3.17571E+0
1.01000E+0,2.84195E-4,2.84195E+0,2.87037E+0
9.59500E-1,2.70844E-4,2.70843E+0,2.59874E+0
9.09000E-1,2.58446E-4,2.58446E+0,2.34927E+0
8.58500E-1,2.51770E-4,2.51770E+0,2.16145E+0
8.08000E-1,2.42233E-4,2.42233E+0,1.95725E+0
7.57500E-1,2.35558E-4,2.35558E+0,1.78435E+0
7.07000E-1,2.28882E-4,2.28882E+0,1.61819E+0
6.56500E-1,2.20299E-4,2.20299E+0,1.44626E+0
6.06000E-1,2.18391E-4,2.18391E+0,1.32345E+0
5.55500E-1,2.09808E-4,2.09808E+0,1.16549E+0
5.05000E-1,2.04086E-4,2.04086E+0,1.03064E+0
4.54500E-1,2.02179E-4,2.02179E+0,9.18904E-1
4.04000E-1,2.02179E-4,2.02179E+0,8.16803E-1
3.53500E-1,2.00272E-4,2.00272E+0,7.07960E-1
3.03000E-1,1.99318E-4,1.99318E+0,6.03933E-1
2.52500E-1,1.93596E-4,1.93596E+0,4.88830E-1
2.02000E-1,1.90735E-4,1.90735E+0,3.85284E-1
1.51500E-1,1.96457E-4,1.96457E+0,2.97632E-1
1.01000E-1,1.97411E-4,1.97411E+0,1.99385E-1
5.05000E-2,1.99318E-4,1.99318E+0,1.00656E-1
0.00000E+0,1.95503E-4,1.95503E+0,0.00000E+0
1.00000E+1,2.13070E-2,2.13070E+2,2.13070E+3
